,Time,lhl,lhm,lvl,lrf,lgl,lgm,lta,lpl,ShankSagittal
0,0.0683499351143837,-0.14305116451396518,8.29696754180998,-1.5735628096536172,-3.719330277363095,-18.024446728759614,-32.329563180156136,-2.0027163031955126,-10.156632680491528,-0.6019700294194448
1,0.06884992867708206,-0.14305116451396518,8.29696754180998,-1.430511645139652,-3.719330277363095,-17.88139556424565,-32.329563180156136,-2.0027163031955126,-10.156632680491528,-0.6032244214649851
2,0.06934992969036102,-0.14305116451396518,8.29696754180998,-1.430511645139652,-3.719330277363095,-17.88139556424565,-32.329563180156136,-1.8596651386815475,-10.299683845005493,-0.6044788322026642
3,0.06984993070363998,-0.28610232902793037,8.29696754180998,-1.430511645139652,-3.8623814418770603,-17.88139556424565,-32.329563180156136,-1.8596651386815475,-10.44273500951946,-0.6057332429403433
4,0.07034993171691895,-0.28610232902793037,8.29696754180998,-1.430511645139652,-3.719330277363095,-17.88139556424565,-32.186512015642165,-1.8596651386815475,-10.44273500951946,-0.6069876536780223
5,0.0708499327301979,-0.14305116451396518,8.29696754180998,-1.430511645139652,-3.719330277363095,-17.88139556424565,-32.186512015642165,-1.7166139741675823,-10.44273500951946,-0.6082420644157014
6,0.07134993374347687,-0.28610232902793037,8.29696754180998,-1.430511645139652,-3.8623814418770603,-17.88139556424565,-32.329563180156136,-1.5735628096536172,-10.585786174033425,-0.6094964751533805
7,0.07184993475675583,-0.28610232902793037,8.29696754180998,-1.430511645139652,-3.719330277363095,-17.88139556424565,-32.329563180156136,-1.5735628096536172,-10.44273500951946,-0.6107508858910595
8,0.07234993577003479,-0.28610232902793037,8.29696754180998,-1.430511645139652,-3.719330277363095,-17.88139556424565,-32.329563180156136,-1.5735628096536172,-10.44273500951946,-0.6120052966287386
9,0.07284992933273315,-0.28610232902793037,8.29696754180998,-1.430511645139652,-3.719330277363095,-17.88139556424565,-32.329563180156136,-1.5735628096536172,-10.44273500951946,-0.6132596886742789
10,0.07334993034601212,-0.28610232902793037,8.29696754180998,-1.430511645139652,-3.719330277363095,-17.88139556424565,-32.186512015642165,-1.5735628096536172,-10.44273500951946,-0.614514099411958
11,0.07384993135929108,-0.28610232902793037,8.29696754180998,-1.430511645139652,-3.719330277363095,-17.88139556424565,-32.329563180156136,-1.5735628096536172,-10.299683845005493,-0.6157685101496371
12,0.07434993237257004,-0.28610232902793037,8.29696754180998,-1.430511645139652,-3.719330277363095,-17.88139556424565,-32.329563180156136,-1.5735628096536172,-10.299683845005493,-0.6170229208873161
13,0.074849933385849,-0.28610232902793037,8.440018706323947,-1.430511645139652,-3.719330277363095,-17.88139556424565,-32.186512015642165,-1.5735628096536172,-10.44273500951946,-0.6182773316249953
14,0.07534993439912796,-0.28610232902793037,8.29696754180998,-1.430511645139652,-3.719330277363095,-17.88139556424565,-32.329563180156136,-1.5735628096536172,-10.44273500951946,-0.6195317423626744
15,0.07584993541240692,-0.28610232902793037,8.29696754180998,-1.430511645139652,-3.719330277363095,-17.738344399731684,-32.329563180156136,-1.7166139741675823,-10.44273500951946,-0.6207861531003535
16,0.07634992897510529,-0.28610232902793037,8.29696754180998,-1.430511645139652,-3.719330277363095,-17.88139556424565,-32.329563180156136,-1.5735628096536172,-10.44273500951946,-0.6220405451458938
17,0.07684992998838425,-0.28610232902793037,8.440018706323947,-1.430511645139652,-3.719330277363095,-17.88139556424565,-32.329563180156136,-1.5735628096536172,-10.44273500951946,-0.6232949558835729
18,0.07734993100166321,-0.28610232902793037,8.29696754180998,-1.430511645139652,-3.719330277363095,-17.88139556424565,-32.329563180156136,-1.5735628096536172,-10.44273500951946,-0.6245493666212519
19,0.07784993201494217,-0.28610232902793037,8.29696754180998,-1.430511645139652,-3.5762791128491296,-17.88139556424565,-32.329563180156136,-1.5735628096536172,-10.44273500951946,-0.625803777358931
20,0.07834993302822113,-0.28610232902793037,8.440018706323947,-1.430511645139652,-3.719330277363095,-17.88139556424565,-32.329563180156136,-1.5735628096536172,-10.44273500951946,-0.6270581880966101
21,0.07884993404150009,-0.28610232902793037,8.440018706323947,-1.430511645139652,-3.719330277363095,-17.88139556424565,-32.329563180156136,-1.5735628096536172,-10.299683845005493,-0.6283125988342891
22,0.07934993505477905,-0.28610232902793037,8.440018706323947,-1.430511645139652,-3.719330277363095,-17.88139556424565,-32.186512015642165,-1.7166139741675823,-10.299683845005493,-0.6295670095719682
23,0.07984992861747742,-0.28610232902793037,8.440018706323947,-1.430511645139652,-3.719330277363095,-17.88139556424565,-32.329563180156136,-1.7166139741675823,-10.299683845005493,-0.63080532642653
24,0.08034992963075638,-0.28610232902793037,8.29696754180998,-1.430511645139652,-3.719330277363095,-17.88139556424565,-32.329563180156136,-1.5735628096536172,-10.156632680491528,-0.6320195482884731
25,0.08084993064403534,-0.28610232902793037,8.29696754180998,-1.430511645139652,-3.719330277363095,-17.88139556424565,-32.329563180156136,-1.5735628096536172,-10.299683845005493,-0.6332337701504162
26,0.0813499316573143,-0.28610232902793037,8.29696754180998,-1.430511645139652,-3.719330277363095,-17.88139556424565,-32.329563180156136,-1.5735628096536172,-10.299683845005493,-0.6344479920123592
27,0.08184993267059326,-0.28610232902793037,8.440018706323947,-1.430511645139652,-3.719330277363095,-17.88139556424565,-32.329563180156136,-1.430511645139652,-10.299683845005493,-0.6356622138743023
28,0.08234993368387222,-0.28610232902793037,8.29696754180998,-1.430511645139652,-3.719330277363095,-17.88139556424565,-32.329563180156136,-1.430511645139652,-10.299683845005493,-0.6368764357362454
29,0.08284993469715118,-0.28610232902793037,8.29696754180998,-1.430511645139652,-3.719330277363095,-17.88139556424565,-32.329563180156136,-1.7166139741675823,-10.299683845005493,-0.6380906575981885
30,0.08334993571043015,-0.28610232902793037,8.29696754180998,-1.430511645139652,-3.719330277363095,-18.024446728759614,-32.329563180156136,-1.8596651386815475,-10.299683845005493,-0.6393048794601316
31,0.08384992927312851,-0.28610232902793037,8.29696754180998,-1.430511645139652,-3.719330277363095,-17.88139556424565,-32.329563180156136,-1.8596651386815475,-10.44273500951946,-0.6405190832287957
32,0.08434993028640747,-0.28610232902793037,8.29696754180998,-1.2874604806256866,-3.719330277363095,-17.88139556424565,-32.329563180156136,-1.8596651386815475,-10.44273500951946,-0.6417333050907388
33,0.08484993129968643,-0.28610232902793037,8.29696754180998,-1.430511645139652,-3.719330277363095,-17.88139556424565,-32.329563180156136,-1.8596651386815475,-10.299683845005493,-0.6429475269526819
34,0.0853499323129654,-0.28610232902793037,8.29696754180998,-1.430511645139652,-3.719330277363095,-17.88139556424565,-32.329563180156136,-1.8596651386815475,-10.44273500951946,-0.6441617488146248
35,0.08584993332624435,-0.4291534935418956,8.29696754180998,-1.2874604806256866,-3.719330277363095,-17.88139556424565,-32.329563180156136,-1.8596651386815475,-10.44273500951946,-0.6453759706765679
36,0.08634993433952332,-0.28610232902793037,8.440018706323947,-1.430511645139652,-3.719330277363095,-17.88139556424565,-32.329563180156136,-1.7166139741675823,-10.44273500951946,-0.646590192538511
37,0.08684993535280228,-0.28610232902793037,8.440018706323947,-1.2874604806256866,-3.719330277363095,-17.88139556424565,-32.4726143446701,-1.7166139741675823,-10.585786174033425,-0.6478044144004541
38,0.08734992891550064,-0.28610232902793037,8.440018706323947,-1.2874604806256866,-3.719330277363095,-17.88139556424565,-32.4726143446701,-1.7166139741675823,-10.585786174033425,-0.6490186181691182
39,0.0878499299287796,-0.28610232902793037,8.440018706323947,-1.2874604806256866,-3.719330277363095,-17.88139556424565,-32.4726143446701,-1.5735628096536172,-10.585786174033425,-0.6502328400310613
40,0.08834993094205856,-0.28610232902793037,8.440018706323947,-1.2874604806256866,-3.719330277363095,-17.88139556424565,-32.4726143446701,-1.5735628096536172,-10.585786174033425,-0.6514470618930044
41,0.08884993195533752,-0.4291534935418956,8.440018706323947,-1.2874604806256866,-3.719330277363095,-17.88139556424565,-32.4726143446701,-1.2874604806256866,-10.72883733854739,-0.6526612837549475
42,0.08934993296861649,-0.28610232902793037,8.440018706323947,-1.430511645139652,-3.719330277363095,-17.738344399731684,-32.4726143446701,-1.0013581515977563,-10.72883733854739,-0.6538755056168906
43,0.08984993398189545,-0.4291534935418956,8.440018706323947,-1.430511645139652,-3.719330277363095,-17.738344399731684,-32.4726143446701,-0.715255822569826,-10.72883733854739,-0.6550897274788336
44,0.09034993499517441,-0.4291534935418956,8.440018706323947,-1.430511645139652,-3.719330277363095,-17.88139556424565,-32.4726143446701,-0.5722046580558607,-10.72883733854739,-0.6562748943024761
45,0.09084992855787277,-0.28610232902793037,8.583069870837912,-1.430511645139652,-3.719330277363095,-17.88139556424565,-32.4726143446701,-0.715255822569826,-10.72883733854739,-0.6574600434657925
46,0.09134992957115173,-0.4291534935418956,8.583069870837912,-1.430511645139652,-3.719330277363095,-17.88139556424565,-32.4726143446701,-0.715255822569826,-10.72883733854739,-0.6586452102894349
47,0.0919499322772026,-0.4291534935418956,8.583069870837912,-1.430511645139652,-3.719330277363095,-17.88139556424565,-32.4726143446701,-0.8583069870837912,-10.585786174033425,-0.6600674140098711
48,0.09234993159770966,-0.28610232902793037,8.583069870837912,-1.430511645139652,-3.719330277363095,-17.88139556424565,-32.4726143446701,-1.0013581515977563,-10.72883733854739,-0.6610155439367199
49,0.09284993261098862,-0.4291534935418956,8.583069870837912,-1.430511645139652,-3.719330277363095,-18.024446728759614,-32.4726143446701,-1.1444093161117215,-10.72883733854739,-0.6622007107603624
50,0.09334993362426758,-0.28610232902793037,8.583069870837912,-1.430511645139652,-3.719330277363095,-18.024446728759614,-32.4726143446701,-1.1444093161117215,-10.871888503061355,-0.6633858775840048
51,0.09394992887973785,-0.28610232902793037,8.583069870837912,-1.430511645139652,-3.719330277363095,-18.024446728759614,-32.61566550918406,-1.2874604806256866,-10.72883733854739,-0.6648080636441149
52,0.09444992989301682,-0.28610232902793037,8.583069870837912,-1.430511645139652,-3.719330277363095,-17.88139556424565,-32.61566550918406,-1.2874604806256866,-10.72883733854739,-0.6659932304677574
53,0.09494993090629578,-0.28610232902793037,8.440018706323947,-1.430511645139652,-3.719330277363095,-18.024446728759614,-32.61566550918406,-1.430511645139652,-10.585786174033425,-0.6671783972913998
54,0.09544993191957474,-0.28610232902793037,8.583069870837912,-1.430511645139652,-3.719330277363095,-18.024446728759614,-32.61566550918406,-1.430511645139652,-10.44273500951946,-0.6683635641150423
55,0.0959499329328537,-0.28610232902793037,8.440018706323947,-1.430511645139652,-3.719330277363095,-18.024446728759614,-32.61566550918406,-1.5735628096536172,-10.44273500951946,-0.6695487309386847
56,0.09644993394613266,-0.28610232902793037,8.440018706323947,-1.430511645139652,-3.719330277363095,-18.024446728759614,-32.61566550918406,-1.5735628096536172,-10.585786174033425,-0.6707338977623273
57,0.09694993495941162,-0.28610232902793037,8.583069870837912,-1.430511645139652,-3.719330277363095,-18.024446728759614,-32.61566550918406,-1.430511645139652,-10.585786174033425,-0.6719190645859697
58,0.09744992852210999,-0.28610232902793037,8.440018706323947,-1.430511645139652,-3.719330277363095,-18.024446728759614,-32.61566550918406,-1.430511645139652,-10.585786174033425,-0.6731042137492861
59,0.09794992953538895,-0.14305116451396518,8.440018706323947,-1.430511645139652,-3.719330277363095,-18.024446728759614,-32.61566550918406,-1.430511645139652,-10.72883733854739,-0.6742893805729285
60,0.09844993054866791,-0.14305116451396518,8.440018706323947,-1.430511645139652,-3.719330277363095,-18.024446728759614,-32.61566550918406,-1.430511645139652,-10.72883733854739,-0.675474547396571
61,0.09894993156194687,-0.14305116451396518,8.440018706323947,-1.430511645139652,-3.5762791128491296,-18.16749789327358,-32.61566550918406,-1.430511645139652,-10.72883733854739,-0.6766597142202134
62,0.09944993257522583,-0.14305116451396518,8.440018706323947,-1.430511645139652,-3.719330277363095,-18.024446728759614,-32.61566550918406,-1.5735628096536172,-10.72883733854739,-0.677844881043856
63,0.09994993358850479,-0.14305116451396518,8.440018706323947,-1.430511645139652,-3.719330277363095,-18.024446728759614,-32.61566550918406,-1.5735628096536172,-10.72883733854739,-0.6790100567250917
64,0.10044993460178375,-0.14305116451396518,8.440018706323947,-1.5735628096536172,-3.719330277363095,-18.024446728759614,-32.61566550918406,-1.7166139741675823,-10.585786174033425,-0.6801702345276347
65,0.10094993561506271,-0.14305116451396518,8.440018706323947,-1.430511645139652,-3.719330277363095,-18.024446728759614,-32.61566550918406,-1.7166139741675823,-10.72883733854739,-0.6813304123301777
66,0.10144992917776108,-0.14305116451396518,8.440018706323947,-1.430511645139652,-3.719330277363095,-18.16749789327358,-32.61566550918406,-1.7166139741675823,-10.585786174033425,-0.6824905728447592
67,0.10194993019104004,-0.14305116451396518,8.29696754180998,-1.430511645139652,-3.5762791128491296,-18.16749789327358,-32.4726143446701,-1.7166139741675823,-10.72883733854739,-0.6836507506473021
68,0.102449931204319,-0.14305116451396518,8.440018706323947,-1.430511645139652,-3.5762791128491296,-18.16749789327358,-32.4726143446701,-1.7166139741675823,-10.72883733854739,-0.684810928449845
69,0.10294993221759796,-0.14305116451396518,8.29696754180998,-1.430511645139652,-3.719330277363095,-18.16749789327358,-32.4726143446701,-1.5735628096536172,-10.72883733854739,-0.685971106252388
70,0.10344993323087692,0.0,8.29696754180998,-1.430511645139652,-3.5762791128491296,-18.16749789327358,-32.4726143446701,-1.430511645139652,-10.72883733854739,-0.687131284054931
71,0.10394993424415588,0.0,8.29696754180998,-1.430511645139652,-3.719330277363095,-18.16749789327358,-32.61566550918406,-1.2874604806256866,-11.01493966757532,-0.6882914618574739
72,0.10444993525743484,0.0,8.29696754180998,-1.430511645139652,-3.719330277363095,-18.16749789327358,-32.61566550918406,-1.1444093161117215,-11.01493966757532,-0.6894516396600169
73,0.10494992882013321,0.0,8.153916377296015,-1.430511645139652,-3.719330277363095,-18.16749789327358,-32.61566550918406,-1.0013581515977563,-11.01493966757532,-0.6906118001745984
74,0.10544992983341217,0.0,8.29696754180998,-1.430511645139652,-3.719330277363095,-18.16749789327358,-32.61566550918406,-0.8583069870837912,-11.01493966757532,-0.6917719779771414
75,0.10594993084669113,0.0,8.153916377296015,-1.430511645139652,-3.719330277363095,-18.16749789327358,-32.61566550918406,-0.8583069870837912,-11.01493966757532,-0.6929321557796844
76,0.10644993185997009,0.14305116451396518,8.153916377296015,-1.430511645139652,-3.719330277363095,-18.16749789327358,-32.61566550918406,-0.8583069870837912,-11.01493966757532,-0.6940923335822273
77,0.10694993287324905,0.14305116451396518,8.153916377296015,-1.430511645139652,-3.5762791128491296,-18.16749789327358,-32.61566550918406,-1.0013581515977563,-10.871888503061355,-0.6952525113847703
78,0.10744993388652802,0.14305116451396518,8.153916377296015,-1.430511645139652,-3.5762791128491296,-18.16749789327358,-32.61566550918406,-1.1444093161117215,-10.72883733854739,-0.6964126891873131
79,0.10794993489980698,0.14305116451396518,8.153916377296015,-1.430511645139652,-3.719330277363095,-18.16749789327358,-32.61566550918406,-1.1444093161117215,-10.72883733854739,-0.6975728669898561
80,0.10844992846250534,0.14305116451396518,8.01086521278205,-1.430511645139652,-3.5762791128491296,-18.16749789327358,-32.61566550918406,-1.2874604806256866,-10.585786174033425,-0.6987330275044377
81,0.1089499294757843,0.14305116451396518,8.01086521278205,-1.5735628096536172,-3.5762791128491296,-18.16749789327358,-32.61566550918406,-1.2874604806256866,-10.44273500951946,-0.6998932053069806
82,0.10944993048906326,0.14305116451396518,8.153916377296015,-1.430511645139652,-3.5762791128491296,-18.024446728759614,-32.61566550918406,-1.430511645139652,-10.44273500951946,-0.7010533831095236
83,0.10994993150234222,0.28610232902793037,8.01086521278205,-1.430511645139652,-3.5762791128491296,-18.024446728759614,-32.61566550918406,-1.430511645139652,-10.44273500951946,-0.7021962339976223
84,0.11044993251562119,0.14305116451396518,8.01086521278205,-1.430511645139652,-3.719330277363095,-18.024446728759614,-32.61566550918406,-1.430511645139652,-10.585786174033425,-0.7033130935458182
85,0.11094993352890015,0.28610232902793037,8.153916377296015,-1.430511645139652,-3.5762791128491296,-18.16749789327358,-32.61566550918406,-1.2874604806256866,-10.44273500951946,-0.704429953094014
86,0.11144993454217911,0.14305116451396518,8.01086521278205,-1.430511645139652,-3.719330277363095,-18.16749789327358,-32.75871667369803,-1.2874604806256866,-10.44273500951946,-0.70554681264221
87,0.11194993555545807,0.28610232902793037,8.01086521278205,-1.430511645139652,-3.719330277363095,-18.024446728759614,-32.61566550918406,-1.5735628096536172,-10.44273500951946,-0.7066636721904058
88,0.11244992911815643,0.28610232902793037,8.01086521278205,-1.430511645139652,-3.719330277363095,-18.16749789327358,-32.75871667369803,-1.7166139741675823,-10.299683845005493,-0.7077805150961313
89,0.1129499301314354,0.28610232902793037,8.01086521278205,-1.5735628096536172,-3.719330277363095,-18.16749789327358,-32.61566550918406,-2.0027163031955126,-10.299683845005493,-0.7088973746443271
90,0.11344993114471436,0.28610232902793037,7.867814048268086,-1.430511645139652,-3.5762791128491296,-18.16749789327358,-32.61566550918406,-2.145767467709478,-10.156632680491528,-0.7100142341925231
91,0.11394993215799332,0.28610232902793037,8.01086521278205,-1.430511645139652,-3.5762791128491296,-18.16749789327358,-32.61566550918406,-2.4318697967374083,-10.156632680491528,-0.7111310937407189
92,0.11444993317127228,0.28610232902793037,7.867814048268086,-1.430511645139652,-3.5762791128491296,-18.16749789327358,-32.61566550918406,-2.4318697967374083,-10.299683845005493,-0.7122479532889148
93,0.11494993418455124,0.28610232902793037,7.867814048268086,-1.430511645139652,-3.5762791128491296,-18.16749789327358,-32.61566550918406,-2.5749209612513733,-10.44273500951946,-0.7133648128371107
94,0.1154499351978302,0.28610232902793037,7.867814048268086,-1.430511645139652,-3.5762791128491296,-18.16749789327358,-32.75871667369803,-2.5749209612513733,-10.585786174033425,-0.7144816723853066
95,0.11594992876052856,0.28610232902793037,8.01086521278205,-1.430511645139652,-3.719330277363095,-18.024446728759614,-32.75871667369803,-2.5749209612513733,-10.72883733854739,-0.715598515291032
96,0.11644992977380753,0.28610232902793037,7.867814048268086,-1.5735628096536172,-3.5762791128491296,-18.16749789327358,-32.61566550918406,-2.5749209612513733,-10.871888503061355,-0.7167153748392279
97,0.11694993078708649,0.28610232902793037,7.867814048268086,-1.430511645139652,-3.719330277363095,-18.16749789327358,-32.75871667369803,-2.4318697967374083,-11.01493966757532,-0.7178322343874238
98,0.11744993180036545,0.4291534935418956,7.867814048268086,-1.430511645139652,-3.5762791128491296,-18.310549057787544,-32.75871667369803,-2.4318697967374083,-11.01493966757532,-0.7189490939356197
99,0.11794993281364441,0.4291534935418956,7.867814048268086,-1.430511645139652,-3.5762791128491296,-18.16749789327358,-32.75871667369803,-2.288818632223443,-11.01493966757532,-0.7200659534838155
100,0.11844993382692337,0.28610232902793037,7.867814048268086,-1.430511645139652,-3.719330277363095,-18.16749789327358,-32.75871667369803,-2.145767467709478,-11.01493966757532,-0.7211828130320115
101,0.11894993484020233,0.28610232902793037,7.867814048268086,-1.430511645139652,-3.5762791128491296,-18.16749789327358,-32.75871667369803,-2.0027163031955126,-11.01493966757532,-0.7222996725802073
102,0.1194499284029007,0.4291534935418956,7.867814048268086,-1.430511645139652,-3.5762791128491296,-18.024446728759614,-32.75871667369803,-1.8596651386815475,-11.157990832089284,-0.7234165154859328
103,0.11994992941617966,0.4291534935418956,7.867814048268086,-1.430511645139652,-3.5762791128491296,-18.024446728759614,-32.75871667369803,-2.0027163031955126,-11.30104199660325,-0.7244714399052073
104,0.12044993042945862,0.4291534935418956,7.867814048268086,-1.430511645139652,-3.5762791128491296,-18.024446728759614,-32.75871667369803,-2.145767467709478,-11.30104199660325,-0.725485073213076
105,0.12094993144273758,0.28610232902793037,7.867814048268086,-1.430511645139652,-3.5762791128491296,-18.16749789327358,-32.75871667369803,-2.288818632223443,-11.157990832089284,-0.7264987065209446
106,0.12144993245601654,0.4291534935418956,7.867814048268086,-1.430511645139652,-3.5762791128491296,-18.16749789327358,-32.61566550918406,-2.4318697967374083,-11.157990832089284,-0.7275123398288132
107,0.1219499334692955,0.28610232902793037,7.867814048268086,-1.430511645139652,-3.5762791128491296,-18.16749789327358,-32.61566550918406,-2.288818632223443,-11.30104199660325,-0.7285259731366819
108,0.12244993448257446,0.4291534935418956,7.867814048268086,-1.430511645139652,-3.5762791128491296,-18.16749789327358,-32.75871667369803,-2.288818632223443,-11.30104199660325,-0.7295396064445505
109,0.12294993549585342,0.4291534935418956,7.867814048268086,-1.430511645139652,-3.5762791128491296,-18.16749789327358,-32.75871667369803,-2.145767467709478,-11.30104199660325,-0.730553239752419
110,0.12344992905855179,0.28610232902793037,7.867814048268086,-1.430511645139652,-3.5762791128491296,-18.16749789327358,-32.61566550918406,-2.145767467709478,-11.444093161117216,-0.731566857956005
111,0.12394993007183075,0.4291534935418956,7.867814048268086,-1.430511645139652,-3.5762791128491296,-18.16749789327358,-32.75871667369803,-2.4318697967374083,-11.444093161117216,-0.7325804912638736
112,0.12444993108510971,0.28610232902793037,7.867814048268086,-1.430511645139652,-3.5762791128491296,-18.16749789327358,-32.75871667369803,-2.4318697967374083,-11.30104199660325,-0.7335941245717422
113,0.12494993209838867,0.4291534935418956,7.867814048268086,-1.430511645139652,-3.5762791128491296,-18.16749789327358,-32.75871667369803,-2.4318697967374083,-11.30104199660325,-0.7346077578796109
114,0.12544992566108704,0.4291534935418956,7.867814048268086,-1.430511645139652,-3.5762791128491296,-18.16749789327358,-32.75871667369803,-2.4318697967374083,-11.30104199660325,-0.7356213760831968
115,0.1259499341249466,0.28610232902793037,7.867814048268086,-1.5735628096536172,-3.5762791128491296,-18.16749789327358,-32.61566550918406,-2.4318697967374083,-11.30104199660325,-0.7366350244953481
116,0.12644992768764496,0.4291534935418956,7.867814048268086,-1.430511645139652,-3.5762791128491296,-18.024446728759614,-32.75871667369803,-2.4318697967374083,-11.157990832089284,-0.7376486426989339
117,0.12694993615150452,0.4291534935418956,7.724762883754121,-1.430511645139652,-3.5762791128491296,-18.024446728759614,-32.75871667369803,-2.4318697967374083,-11.157990832089284,-0.7386622911110853
118,0.12744992971420288,0.4291534935418956,7.724762883754121,-1.430511645139652,-3.5762791128491296,-18.16749789327358,-32.901767838211995,-2.288818632223443,-11.157990832089284,-0.7396759093146712
119,0.12794993817806244,0.4291534935418956,7.724762883754121,-1.430511645139652,-3.5762791128491296,-18.16749789327358,-32.75871667369803,-2.288818632223443,-11.157990832089284,-0.7406895577268225
120,0.1284499317407608,0.5722046580558607,7.724762883754121,-1.430511645139652,-3.5762791128491296,-18.16749789327358,-32.75871667369803,-2.288818632223443,-11.01493966757532,-0.7417031759304085
121,0.12894992530345917,0.4291534935418956,7.724762883754121,-1.2874604806256866,-3.5762791128491296,-18.16749789327358,-32.75871667369803,-2.288818632223443,-11.01493966757532,-0.7427167941339944
122,0.12944993376731873,0.4291534935418956,7.867814048268086,-1.430511645139652,-3.4332279483351646,-18.16749789327358,-32.75871667369803,-2.288818632223443,-10.871888503061355,-0.7437304425461457
123,0.1299499273300171,0.4291534935418956,7.867814048268086,-1.430511645139652,-3.5762791128491296,-18.16749789327358,-32.75871667369803,-2.0027163031955126,-10.871888503061355,-0.7446704781120222
124,0.13044993579387665,0.5722046580558607,7.724762883754121,-1.430511645139652,-3.5762791128491296,-18.16749789327358,-32.75871667369803,-1.8596651386815475,-10.871888503061355,-0.7455614827029766
125,0.130949929356575,0.4291534935418956,7.724762883754121,-1.2874604806256866,-3.5762791128491296,-18.16749789327358,-32.75871667369803,-1.7166139741675823,-10.871888503061355,-0.7464524607403743
126,0.13144993782043457,0.4291534935418956,7.724762883754121,-1.2874604806256866,-3.5762791128491296,-18.16749789327358,-32.75871667369803,-1.7166139741675823,-10.871888503061355,-0.7473434653313287
127,0.13194993138313293,0.4291534935418956,7.724762883754121,-1.2874604806256866,-3.5762791128491296,-18.16749789327358,-32.75871667369803,-2.0027163031955126,-10.871888503061355,-0.7482344433687265
128,0.1324499249458313,0.4291534935418956,7.724762883754121,-1.2874604806256866,-3.5762791128491296,-18.16749789327358,-32.75871667369803,-2.145767467709478,-10.871888503061355,-0.7491254214061241
129,0.13294993340969086,0.5722046580558607,7.724762883754121,-1.430511645139652,-3.5762791128491296,-18.16749789327358,-32.75871667369803,-2.145767467709478,-10.871888503061355,-0.7500164259970785
130,0.13344992697238922,0.5722046580558607,7.724762883754121,-1.2874604806256866,-3.5762791128491296,-18.16749789327358,-32.75871667369803,-2.145767467709478,-11.01493966757532,-0.7509074040344763
131,0.13394993543624878,0.5722046580558607,7.581711719240155,-1.430511645139652,-3.5762791128491296,-18.310549057787544,-32.75871667369803,-2.145767467709478,-11.01493966757532,-0.7517984086254306
132,0.13444992899894714,0.5722046580558607,7.581711719240155,-1.2874604806256866,-3.4332279483351646,-18.16749789327358,-32.75871667369803,-2.288818632223443,-11.01493966757532,-0.7526893866628284
133,0.1349499374628067,0.5722046580558607,7.581711719240155,-1.2874604806256866,-3.5762791128491296,-18.310549057787544,-32.75871667369803,-2.4318697967374083,-11.157990832089284,-0.7535803912537827
134,0.13544993102550507,0.5722046580558607,7.581711719240155,-1.2874604806256866,-3.4332279483351646,-18.16749789327358,-32.75871667369803,-2.4318697967374083,-11.157990832089284,-0.7544713692911804
135,0.13594993948936462,0.5722046580558607,7.581711719240155,-1.430511645139652,-3.5762791128491296,-18.16749789327358,-32.75871667369803,-2.288818632223443,-11.157990832089284,-0.7553623738821348
136,0.136449933052063,0.5722046580558607,7.581711719240155,-1.2874604806256866,-3.5762791128491296,-18.16749789327358,-32.75871667369803,-2.288818632223443,-11.30104199660325,-0.7562533519195326
137,0.13694992661476135,0.5722046580558607,7.581711719240155,-1.2874604806256866,-3.4332279483351646,-18.024446728759614,-32.75871667369803,-2.288818632223443,-11.157990832089284,-0.7571443299569304
138,0.1374499350786209,0.5722046580558607,7.581711719240155,-1.2874604806256866,-3.4332279483351646,-18.16749789327358,-32.75871667369803,-2.288818632223443,-11.01493966757532,-0.7580353345478846
139,0.13794992864131927,0.715255822569826,7.581711719240155,-1.2874604806256866,-3.5762791128491296,-18.16749789327358,-32.75871667369803,-2.288818632223443,-11.157990832089284,-0.7589263125852824
140,0.13844993710517883,0.5722046580558607,7.581711719240155,-1.2874604806256866,-3.4332279483351646,-18.16749789327358,-32.75871667369803,-2.145767467709478,-11.157990832089284,-0.7598173171762368
141,0.1389499306678772,0.5722046580558607,7.43866055472619,-1.2874604806256866,-3.4332279483351646,-18.16749789327358,-32.75871667369803,-2.0027163031955126,-11.157990832089284,-0.7607082952136345
142,0.13944993913173676,0.715255822569826,7.581711719240155,-1.2874604806256866,-3.4332279483351646,-18.024446728759614,-32.75871667369803,-2.0027163031955126,-11.30104199660325,-0.7615992998045888
143,0.13994993269443512,0.715255822569826,7.43866055472619,-1.2874604806256866,-3.4332279483351646,-18.024446728759614,-32.75871667369803,-2.0027163031955126,-11.30104199660325,-0.7624001564436939
144,0.14044992625713348,0.715255822569826,7.43866055472619,-1.2874604806256866,-3.4332279483351646,-18.024446728759614,-32.75871667369803,-2.0027163031955126,-11.157990832089284,-0.7632010130827989
145,0.14094993472099304,0.715255822569826,7.43866055472619,-1.2874604806256866,-3.4332279483351646,-18.16749789327358,-32.75871667369803,-2.145767467709478,-11.30104199660325,-0.7640018935895989
146,0.1414499282836914,0.715255822569826,7.43866055472619,-1.2874604806256866,-3.4332279483351646,-18.024446728759614,-32.75871667369803,-2.288818632223443,-11.157990832089284,-0.764802750228704
147,0.14194993674755096,0.715255822569826,7.43866055472619,-1.2874604806256866,-3.4332279483351646,-18.16749789327358,-32.75871667369803,-2.288818632223443,-11.157990832089284,-0.7656036307355041
148,0.14244993031024933,0.715255822569826,7.43866055472619,-1.2874604806256866,-3.4332279483351646,-18.16749789327358,-32.75871667369803,-2.288818632223443,-11.30104199660325,-0.7664044873746091
149,0.1429499387741089,0.715255822569826,7.43866055472619,-1.2874604806256866,-3.4332279483351646,-18.16749789327358,-32.75871667369803,-2.288818632223443,-11.30104199660325,-0.7672053678814091
150,0.14344993233680725,0.715255822569826,7.43866055472619,-1.2874604806256866,-3.4332279483351646,-18.16749789327358,-32.75871667369803,-2.145767467709478,-11.30104199660325,-0.7680062245205141
151,0.14394992589950562,0.715255822569826,7.43866055472619,-1.1444093161117215,-3.4332279483351646,-18.16749789327358,-32.75871667369803,-1.8596651386815475,-11.444093161117216,-0.7688070811596192
152,0.14444993436336517,0.715255822569826,7.43866055472619,-1.1444093161117215,-3.4332279483351646,-18.024446728759614,-32.75871667369803,-1.8596651386815475,-11.444093161117216,-0.7696079616664192
153,0.14494992792606354,0.715255822569826,7.43866055472619,-1.1444093161117215,-3.4332279483351646,-18.024446728759614,-32.75871667369803,-1.8596651386815475,-11.587144325631181,-0.7704088183055243
154,0.1454499363899231,0.715255822569826,7.43866055472619,-1.1444093161117215,-3.4332279483351646,-18.024446728759614,-32.75871667369803,-2.0027163031955126,-11.444093161117216,-0.7712096988123244
155,0.14594992995262146,0.5722046580558607,7.43866055472619,-1.2874604806256866,-3.4332279483351646,-18.024446728759614,-32.75871667369803,-2.145767467709478,-11.30104199660325,-0.7720105554514294
156,0.14644993841648102,0.5722046580558607,7.43866055472619,-1.2874604806256866,-3.4332279483351646,-18.024446728759614,-32.75871667369803,-2.145767467709478,-11.157990832089284,-0.7728114359582294
157,0.14694993197917938,0.5722046580558607,7.43866055472619,-1.1444093161117215,-3.4332279483351646,-18.024446728759614,-32.75871667369803,-2.145767467709478,-11.157990832089284,-0.7736122925973344
158,0.14744992554187775,0.5722046580558607,7.43866055472619,-1.1444093161117215,-3.4332279483351646,-18.16749789327358,-32.75871667369803,-2.288818632223443,-11.157990832089284,-0.7744131492364394
159,0.1479499340057373,0.5722046580558607,7.581711719240155,-1.1444093161117215,-3.4332279483351646,-18.16749789327358,-32.75871667369803,-2.288818632223443,-11.01493966757532,-0.7752140297432395
160,0.14844992756843567,0.5722046580558607,7.43866055472619,-1.1444093161117215,-3.4332279483351646,-18.16749789327358,-32.75871667369803,-2.288818632223443,-11.01493966757532,-0.7760148863823446
161,0.14894993603229523,0.5722046580558607,7.581711719240155,-1.1444093161117215,-3.4332279483351646,-18.16749789327358,-32.75871667369803,-2.145767467709478,-11.01493966757532,-0.7768157668891447
162,0.1494499295949936,0.715255822569826,7.581711719240155,-1.1444093161117215,-3.4332279483351646,-18.16749789327358,-32.75871667369803,-2.145767467709478,-11.157990832089284,-0.7776166235282497
163,0.14994993805885315,0.715255822569826,7.43866055472619,-1.1444093161117215,-3.4332279483351646,-18.16749789327358,-32.75871667369803,-2.145767467709478,-11.157990832089284,-0.7782489091029559
164,0.1504499316215515,0.715255822569826,7.43866055472619,-1.1444093161117215,-3.4332279483351646,-18.16749789327358,-32.75871667369803,-2.145767467709478,-11.157990832089284,-0.7788390283574879
165,0.15094992518424988,0.715255822569826,7.43866055472619,-1.1444093161117215,-3.4332279483351646,-18.16749789327358,-32.75871667369803,-2.0027163031955126,-11.157990832089284,-0.7794291476120199
166,0.15144993364810944,0.715255822569826,7.43866055472619,-1.1444093161117215,-3.4332279483351646,-18.16749789327358,-32.75871667369803,-1.8596651386815475,-11.30104199660325,-0.7800192844537026
167,0.1519499272108078,0.715255822569826,7.43866055472619,-1.1444093161117215,-3.4332279483351646,-18.16749789327358,-32.75871667369803,-1.5735628096536172,-11.30104199660325,-0.7806094037082346
168,0.15244993567466736,0.8583069870837912,7.43866055472619,-1.1444093161117215,-3.2901767838211993,-18.16749789327358,-32.75871667369803,-1.430511645139652,-11.30104199660325,-0.7811995405499174
169,0.15294992923736572,0.715255822569826,7.43866055472619,-1.1444093161117215,-3.4332279483351646,-18.16749789327358,-32.901767838211995,-1.430511645139652,-11.30104199660325,-0.7817896598044494
170,0.15344993770122528,0.8583069870837912,7.43866055472619,-1.1444093161117215,-3.2901767838211993,-18.16749789327358,-32.75871667369803,-1.5735628096536172,-11.30104199660325,-0.7823797966461321
171,0.15394993126392365,0.8583069870837912,7.43866055472619,-1.1444093161117215,-3.4332279483351646,-18.310549057787544,-32.901767838211995,-1.7166139741675823,-11.157990832089284,-0.7829699159006641
172,0.154449924826622,0.8583069870837912,7.43866055472619,-1.1444093161117215,-3.2901767838211993,-18.310549057787544,-32.75871667369803,-1.8596651386815475,-11.157990832089284,-0.7835600351551961
173,0.15494993329048157,0.715255822569826,7.43866055472619,-1.1444093161117215,-3.2901767838211993,-18.310549057787544,-32.75871667369803,-1.8596651386815475,-11.01493966757532,-0.7841501719968789
174,0.15544992685317993,0.8583069870837912,7.43866055472619,-1.1444093161117215,-3.4332279483351646,-18.310549057787544,-32.901767838211995,-1.8596651386815475,-11.01493966757532,-0.7847402912514109
175,0.1559499353170395,0.8583069870837912,7.295609390212225,-1.1444093161117215,-3.2901767838211993,-18.16749789327358,-32.901767838211995,-1.8596651386815475,-11.157990832089284,-0.7853304280930936
176,0.15644992887973785,0.8583069870837912,7.43866055472619,-1.1444093161117215,-3.2901767838211993,-18.310549057787544,-32.75871667369803,-1.8596651386815475,-11.157990832089284,-0.7859205473476256
177,0.1569499373435974,0.8583069870837912,7.295609390212225,-1.1444093161117215,-3.2901767838211993,-18.16749789327358,-32.901767838211995,-1.7166139741675823,-11.157990832089284,-0.7865106841893084
178,0.15744993090629578,0.8583069870837912,7.295609390212225,-1.1444093161117215,-3.4332279483351646,-18.310549057787544,-32.901767838211995,-1.8596651386815475,-11.01493966757532,-0.7871008034438404
179,0.15794993937015533,0.8583069870837912,7.295609390212225,-1.1444093161117215,-3.2901767838211993,-18.310549057787544,-32.901767838211995,-1.8596651386815475,-11.01493966757532,-0.7876909402855231
180,0.1584499329328537,0.8583069870837912,7.295609390212225,-1.1444093161117215,-3.2901767838211993,-18.16749789327358,-32.901767838211995,-2.145767467709478,-10.871888503061355,-0.7882810595400551
181,0.15894992649555206,0.8583069870837912,7.295609390212225,-1.2874604806256866,-3.2901767838211993,-18.16749789327358,-32.901767838211995,-2.288818632223443,-10.871888503061355,-0.7888711787945871
182,0.15944993495941162,0.8583069870837912,7.295609390212225,-1.1444093161117215,-3.2901767838211993,-18.024446728759614,-32.901767838211995,-2.288818632223443,-10.871888503061355,-0.7894613156362699
183,0.15994992852210999,0.8583069870837912,7.295609390212225,-1.1444093161117215,-3.4332279483351646,-18.024446728759614,-32.901767838211995,-2.4318697967374083,-10.871888503061355,-0.7899814140698409
184,0.16044993698596954,0.8583069870837912,7.295609390212225,-1.1444093161117215,-3.4332279483351646,-18.024446728759614,-32.901767838211995,-2.4318697967374083,-11.01493966757532,-0.7902214468067187
185,0.1609499305486679,0.8583069870837912,7.152558225698259,-1.1444093161117215,-3.4332279483351646,-18.16749789327358,-32.901767838211995,-2.288818632223443,-11.01493966757532,-0.7904614723901845
186,0.16144993901252747,0.8583069870837912,7.152558225698259,-1.1444093161117215,-3.2901767838211993,-18.024446728759614,-32.901767838211995,-2.288818632223443,-11.01493966757532,-0.7907015051270623
187,0.16194993257522583,0.8583069870837912,7.295609390212225,-1.2874604806256866,-3.2901767838211993,-18.024446728759614,-32.901767838211995,-2.145767467709478,-11.01493966757532,-0.7909415307105282
188,0.1624499261379242,0.8583069870837912,7.295609390212225,-1.1444093161117215,-3.2901767838211993,-18.024446728759614,-32.901767838211995,-2.145767467709478,-11.01493966757532,-0.791181556293994
189,0.16294993460178375,0.8583069870837912,7.295609390212225,-1.1444093161117215,-3.4332279483351646,-18.024446728759614,-32.901767838211995,-2.0027163031955126,-11.157990832089284,-0.7914215890308718
190,0.16344992816448212,0.8583069870837912,7.295609390212225,-1.2874604806256866,-3.2901767838211993,-18.024446728759614,-32.901767838211995,-2.0027163031955126,-11.157990832089284,-0.7916616146143377
191,0.16394993662834167,0.8583069870837912,7.295609390212225,-1.2874604806256866,-3.4332279483351646,-18.024446728759614,-32.901767838211995,-2.0027163031955126,-11.01493966757532,-0.7919016473512155
192,0.16444993019104004,0.8583069870837912,7.152558225698259,-1.1444093161117215,-3.4332279483351646,-18.024446728759614,-32.901767838211995,-2.145767467709478,-11.01493966757532,-0.7921416729346813
193,0.1649499386548996,0.8583069870837912,7.152558225698259,-1.2874604806256866,-3.2901767838211993,-18.024446728759614,-32.901767838211995,-2.0027163031955126,-11.01493966757532,-0.7923817056715591
194,0.16544993221759796,0.8583069870837912,7.295609390212225,-1.1444093161117215,-3.2901767838211993,-18.024446728759614,-32.901767838211995,-2.145767467709478,-11.01493966757532,-0.792621731255025
195,0.16594992578029633,0.715255822569826,7.295609390212225,-1.1444093161117215,-3.2901767838211993,-18.024446728759614,-32.901767838211995,-2.145767467709478,-10.871888503061355,-0.7928617568384908
196,0.1665499359369278,0.8583069870837912,7.295609390212225,-1.1444093161117215,-3.2901767838211993,-18.024446728759614,-32.901767838211995,-2.145767467709478,-10.871888503061355,-0.7931497961227442
197,0.16704992949962616,0.8583069870837912,7.152558225698259,-1.1444093161117215,-3.2901767838211993,-18.024446728759614,-32.901767838211995,-2.145767467709478,-10.871888503061355,-0.7933898217062101
198,0.16754993796348572,0.715255822569826,7.152558225698259,-1.1444093161117215,-3.2901767838211993,-18.16749789327358,-32.901767838211995,-2.0027163031955126,-10.871888503061355,-0.7936298544430879
199,0.16804993152618408,0.715255822569826,7.152558225698259,-1.1444093161117215,-3.2901767838211993,-18.024446728759614,-32.901767838211995,-2.0027163031955126,-10.871888503061355,-0.7938698800265537
200,0.16854992508888245,0.8583069870837912,7.152558225698259,-1.2874604806256866,-3.2901767838211993,-18.024446728759614,-32.901767838211995,-2.0027163031955126,-11.01493966757532,-0.7941099056100196
201,0.169049933552742,0.715255822569826,7.295609390212225,-1.2874604806256866,-3.2901767838211993,-18.024446728759614,-32.901767838211995,-1.8596651386815475,-11.01493966757532,-0.7943499383468974
202,0.16954992711544037,0.8583069870837912,7.152558225698259,-1.1444093161117215,-3.2901767838211993,-18.024446728759614,-32.901767838211995,-1.7166139741675823,-11.01493966757532,-0.7945899639303632
203,0.17004993557929993,0.8583069870837912,7.152558225698259,-1.2874604806256866,-3.2901767838211993,-17.88139556424565,-32.901767838211995,-1.5735628096536172,-11.30104199660325,-0.7946305617996313
204,0.1705499291419983,0.8583069870837912,7.152558225698259,-1.2874604806256866,-3.2901767838211993,-17.88139556424565,-32.901767838211995,-1.430511645139652,-11.30104199660325,-0.7946213012279872
205,0.17104993760585785,0.8583069870837912,7.152558225698259,-1.2874604806256866,-3.2901767838211993,-17.88139556424565,-33.04481900272596,-1.430511645139652,-11.157990832089284,-0.7946120403803529
206,0.1715499311685562,0.8583069870837912,7.009507061184294,-1.1444093161117215,-3.2901767838211993,-17.88139556424565,-32.901767838211995,-1.430511645139652,-11.157990832089284,-0.7946027798087087
207,0.17204992473125458,0.8583069870837912,7.009507061184294,-1.2874604806256866,-3.2901767838211993,-17.88139556424565,-33.04481900272596,-1.430511645139652,-11.157990832089284,-0.7945935192370647
208,0.17254993319511414,0.8583069870837912,7.152558225698259,-1.2874604806256866,-3.2901767838211993,-17.738344399731684,-33.04481900272596,-1.430511645139652,-11.157990832089284,-0.7945842583894304
209,0.1730499267578125,0.8583069870837912,7.152558225698259,-1.1444093161117215,-3.2901767838211993,-17.738344399731684,-33.04481900272596,-1.7166139741675823,-11.157990832089284,-0.7945749978177862
210,0.17354993522167206,0.8583069870837912,7.152558225698259,-1.1444093161117215,-3.2901767838211993,-17.738344399731684,-33.04481900272596,-1.8596651386815475,-11.157990832089284,-0.794565736970152
211,0.17404992878437042,0.8583069870837912,7.152558225698259,-1.2874604806256866,-3.2901767838211993,-17.738344399731684,-33.04481900272596,-1.8596651386815475,-11.157990832089284,-0.7945564763985078
212,0.17454993724822998,0.8583069870837912,7.152558225698259,-1.1444093161117215,-3.2901767838211993,-17.738344399731684,-33.04481900272596,-2.0027163031955126,-11.157990832089284,-0.7945472155508735
213,0.17504993081092834,0.8583069870837912,7.152558225698259,-1.2874604806256866,-3.2901767838211993,-17.88139556424565,-33.04481900272596,-2.145767467709478,-11.157990832089284,-0.7945379549792294
214,0.1755499392747879,0.8583069870837912,7.152558225698259,-1.1444093161117215,-3.2901767838211993,-17.88139556424565,-33.04481900272596,-2.288818632223443,-11.157990832089284,-0.7945286941315951
215,0.17604993283748627,0.8583069870837912,7.152558225698259,-1.2874604806256866,-3.2901767838211993,-17.88139556424565,-33.04481900272596,-2.288818632223443,-11.01493966757532,-0.7945194335599509
216,0.17654992640018463,0.715255822569826,7.152558225698259,-1.2874604806256866,-3.2901767838211993,-17.88139556424565,-32.901767838211995,-2.4318697967374083,-11.01493966757532,-0.7945101729883068
217,0.1770499348640442,0.715255822569826,7.152558225698259,-1.1444093161117215,-3.2901767838211993,-18.024446728759614,-32.901767838211995,-2.5749209612513733,-10.871888503061355,-0.7945009121406725
218,0.17754992842674255,0.715255822569826,7.152558225698259,-1.1444093161117215,-3.2901767838211993,-18.024446728759614,-33.04481900272596,-2.7179721257653386,-10.871888503061355,-0.7944916515690283
219,0.1780499368906021,0.715255822569826,7.152558225698259,-1.2874604806256866,-3.2901767838211993,-18.024446728759614,-32.901767838211995,-2.7179721257653386,-11.01493966757532,-0.7944823907213941
220,0.17854993045330048,0.715255822569826,7.152558225698259,-1.1444093161117215,-3.2901767838211993,-18.024446728759614,-32.901767838211995,-2.5749209612513733,-10.871888503061355,-0.79447313014975
221,0.17904993891716003,0.715255822569826,7.152558225698259,-1.2874604806256866,-3.2901767838211993,-18.024446728759614,-32.901767838211995,-2.5749209612513733,-11.01493966757532,-0.7944638693021158
222,0.1795499324798584,0.715255822569826,7.152558225698259,-1.1444093161117215,-3.2901767838211993,-18.024446728759614,-32.901767838211995,-2.7179721257653386,-11.157990832089284,-0.7944546087304716
223,0.18004992604255676,0.715255822569826,7.152558225698259,-1.2874604806256866,-3.2901767838211993,-18.024446728759614,-32.901767838211995,-2.5749209612513733,-11.157990832089284,-0.794361891234679
224,0.18054993450641632,0.715255822569826,7.152558225698259,-1.1444093161117215,-3.2901767838211993,-18.024446728759614,-32.901767838211995,-2.5749209612513733,-11.157990832089284,-0.7942135286043209
225,0.18104992806911469,0.715255822569826,7.152558225698259,-1.1444093161117215,-3.2901767838211993,-18.024446728759614,-32.901767838211995,-2.4318697967374083,-11.01493966757532,-0.7940651703954388
226,0.18154993653297424,0.715255822569826,7.152558225698259,-1.2874604806256866,-3.2901767838211993,-18.024446728759614,-33.04481900272596,-2.5749209612513733,-11.157990832089284,-0.7939168077650807
227,0.1820499300956726,0.715255822569826,7.152558225698259,-1.1444093161117215,-3.2901767838211993,-18.024446728759614,-33.04481900272596,-2.5749209612513733,-11.01493966757532,-0.7937684495561985
228,0.18254993855953217,0.715255822569826,7.009507061184294,-1.1444093161117215,-3.2901767838211993,-18.024446728759614,-32.901767838211995,-2.5749209612513733,-11.01493966757532,-0.7936200869258404
229,0.18304993212223053,0.715255822569826,7.152558225698259,-1.1444093161117215,-3.2901767838211993,-18.024446728759614,-32.901767838211995,-2.7179721257653386,-11.01493966757532,-0.7934717287169584
230,0.1835499256849289,0.715255822569826,7.152558225698259,-1.1444093161117215,-3.1471256193072343,-18.024446728759614,-32.901767838211995,-2.7179721257653386,-11.01493966757532,-0.7933233705080762
231,0.18404993414878845,0.5722046580558607,7.152558225698259,-1.1444093161117215,-3.1471256193072343,-18.024446728759614,-32.901767838211995,-2.861023290279304,-11.01493966757532,-0.7931750078777181
232,0.18454992771148682,0.5722046580558607,7.152558225698259,-1.1444093161117215,-3.1471256193072343,-18.024446728759614,-32.901767838211995,-2.7179721257653386,-11.01493966757532,-0.793026649668836
233,0.18504993617534637,0.715255822569826,7.152558225698259,-1.1444093161117215,-3.1471256193072343,-18.024446728759614,-33.04481900272596,-2.5749209612513733,-10.871888503061355,-0.7928782870384778
234,0.18554992973804474,0.5722046580558607,7.152558225698259,-1.1444093161117215,-3.1471256193072343,-18.024446728759614,-33.04481900272596,-2.288818632223443,-11.01493966757532,-0.7927299288295958
235,0.1860499382019043,0.715255822569826,7.152558225698259,-1.1444093161117215,-3.2901767838211993,-18.024446728759614,-33.04481900272596,-2.145767467709478,-11.01493966757532,-0.7925815661992376
236,0.18654993176460266,0.5722046580558607,7.152558225698259,-1.1444093161117215,-3.1471256193072343,-18.024446728759614,-33.04481900272596,-2.0027163031955126,-11.01493966757532,-0.7924332079903555
237,0.18704992532730103,0.715255822569826,7.152558225698259,-1.1444093161117215,-3.1471256193072343,-18.16749789327358,-33.04481900272596,-2.145767467709478,-10.871888503061355,-0.7922848497814734
238,0.18754993379116058,0.5722046580558607,7.152558225698259,-1.1444093161117215,-3.2901767838211993,-18.16749789327358,-33.04481900272596,-2.288818632223443,-10.871888503061355,-0.7921364871511153
239,0.18804992735385895,0.5722046580558607,7.152558225698259,-1.1444093161117215,-3.1471256193072343,-18.16749789327358,-33.04481900272596,-2.288818632223443,-10.871888503061355,-0.7919881289422332
240,0.1885499358177185,0.5722046580558607,7.295609390212225,-1.1444093161117215,-3.1471256193072343,-18.024446728759614,-32.901767838211995,-2.4318697967374083,-11.01493966757532,-0.791839766311875
241,0.18904992938041687,0.5722046580558607,7.152558225698259,-1.1444093161117215,-3.1471256193072343,-18.16749789327358,-32.901767838211995,-2.4318697967374083,-11.01493966757532,-0.791691408102993
242,0.18954993784427643,0.5722046580558607,7.295609390212225,-1.1444093161117215,-3.1471256193072343,-18.024446728759614,-32.901767838211995,-2.4318697967374083,-11.01493966757532,-0.7915430454726348
243,0.1900499314069748,0.5722046580558607,7.295609390212225,-1.1444093161117215,-3.1471256193072343,-18.024446728759614,-33.04481900272596,-2.4318697967374083,-11.01493966757532,-0.7913058962337193
244,0.19054992496967316,0.5722046580558607,7.152558225698259,-1.1444093161117215,-3.1471256193072343,-18.024446728759614,-33.04481900272596,-2.4318697967374083,-11.01493966757532,-0.791009557385005
245,0.19104993343353271,0.5722046580558607,7.152558225698259,-1.1444093161117215,-3.1471256193072343,-18.024446728759614,-33.04481900272596,-2.4318697967374083,-11.01493966757532,-0.7907132097045911
246,0.19154992699623108,0.5722046580558607,7.295609390212225,-1.1444093161117215,-3.1471256193072343,-18.024446728759614,-33.04481900272596,-2.5749209612513733,-11.157990832089284,-0.7904168708558769
247,0.19204993546009064,0.5722046580558607,7.152558225698259,-1.1444093161117215,-3.1471256193072343,-17.88139556424565,-33.04481900272596,-2.4318697967374083,-11.157990832089284,-0.790120523175463
248,0.192549929022789,0.5722046580558607,7.295609390212225,-1.1444093161117215,-3.1471256193072343,-17.88139556424565,-32.901767838211995,-2.4318697967374083,-11.444093161117216,-0.7898241843267486
249,0.19304993748664856,0.5722046580558607,7.152558225698259,-1.1444093161117215,-3.1471256193072343,-17.88139556424565,-33.04481900272596,-2.288818632223443,-11.444093161117216,-0.7895278366463347
250,0.19354993104934692,0.5722046580558607,7.152558225698259,-1.1444093161117215,-3.1471256193072343,-17.88139556424565,-33.04481900272596,-2.288818632223443,-11.444093161117216,-0.7892314977976205
251,0.19404993951320648,0.5722046580558607,7.152558225698259,-1.1444093161117215,-3.1471256193072343,-17.88139556424565,-33.04481900272596,-2.145767467709478,-11.444093161117216,-0.7889351501172066
252,0.19454993307590485,0.5722046580558607,7.152558225698259,-1.1444093161117215,-3.1471256193072343,-18.024446728759614,-32.901767838211995,-2.145767467709478,-11.444093161117216,-0.7886388112684923
253,0.1950499266386032,0.5722046580558607,7.152558225698259,-1.1444093161117215,-3.1471256193072343,-18.024446728759614,-33.04481900272596,-2.288818632223443,-11.30104199660325,-0.7883424724197781
254,0.19554993510246277,0.5722046580558607,7.152558225698259,-1.1444093161117215,-3.1471256193072343,-18.16749789327358,-33.04481900272596,-2.4318697967374083,-11.30104199660325,-0.7880461247393642
255,0.19604992866516113,0.5722046580558607,7.152558225698259,-1.1444093161117215,-3.1471256193072343,-18.16749789327358,-32.901767838211995,-2.4318697967374083,-11.157990832089284,-0.7877497858906499
256,0.1965499371290207,0.5722046580558607,7.152558225698259,-1.1444093161117215,-3.1471256193072343,-18.310549057787544,-33.04481900272596,-2.4318697967374083,-11.01493966757532,-0.787453438210236
257,0.19704993069171906,0.5722046580558607,7.152558225698259,-1.1444093161117215,-3.004074454793269,-18.16749789327358,-33.04481900272596,-2.4318697967374083,-10.871888503061355,-0.7871570993615217
258,0.1975499391555786,0.5722046580558607,7.152558225698259,-1.1444093161117215,-3.004074454793269,-18.16749789327358,-33.04481900272596,-2.4318697967374083,-10.871888503061355,-0.7868607516811078
259,0.19804993271827698,0.5722046580558607,7.295609390212225,-1.1444093161117215,-3.004074454793269,-18.16749789327358,-33.04481900272596,-2.4318697967374083,-10.871888503061355,-0.7865644128323935
260,0.19854992628097534,0.5722046580558607,7.295609390212225,-1.1444093161117215,-3.004074454793269,-18.16749789327358,-33.18787016723992,-2.4318697967374083,-10.72883733854739,-0.7862680739836793
261,0.1990499347448349,0.5722046580558607,7.152558225698259,-1.1444093161117215,-3.004074454793269,-18.024446728759614,-33.04481900272596,-2.4318697967374083,-10.871888503061355,-0.7859717263032654
262,0.19954992830753326,0.5722046580558607,7.295609390212225,-1.1444093161117215,-3.004074454793269,-18.16749789327358,-33.04481900272596,-2.288818632223443,-10.871888503061355,-0.7856753874545511
263,0.20004993677139282,0.5722046580558607,7.295609390212225,-1.0013581515977563,-3.004074454793269,-18.024446728759614,-33.04481900272596,-2.0027163031955126,-10.871888503061355,-0.7852575107390326
264,0.2005499303340912,0.5722046580558607,7.295609390212225,-1.1444093161117215,-3.004074454793269,-18.024446728759614,-33.18787016723992,-1.5735628096536172,-10.871888503061355,-0.7848092651236703
265,0.20104993879795074,0.5722046580558607,7.43866055472619,-1.1444093161117215,-3.004074454793269,-18.024446728759614,-33.18787016723992,-1.2874604806256866,-10.871888503061355,-0.7843610061493758
266,0.2015499323606491,0.5722046580558607,7.295609390212225,-1.0013581515977563,-3.004074454793269,-18.024446728759614,-33.04481900272596,-1.1444093161117215,-11.01493966757532,-0.7839127605340135
267,0.20204992592334747,0.5722046580558607,7.295609390212225,-1.1444093161117215,-3.004074454793269,-18.024446728759614,-33.18787016723992,-1.2874604806256866,-10.871888503061355,-0.7834645149186512
268,0.20254993438720703,0.5722046580558607,7.295609390212225,-1.0013581515977563,-3.004074454793269,-18.024446728759614,-33.04481900272596,-1.7166139741675823,-10.871888503061355,-0.7830162559443565
269,0.2030499279499054,0.5722046580558607,7.295609390212225,-1.0013581515977563,-3.004074454793269,-18.024446728759614,-33.18787016723992,-2.0027163031955126,-10.871888503061355,-0.7825680103289943
270,0.20354993641376495,0.5722046580558607,7.295609390212225,-1.1444093161117215,-3.004074454793269,-18.024446728759614,-33.18787016723992,-2.0027163031955126,-11.01493966757532,-0.7821197513546997
271,0.20404992997646332,0.5722046580558607,7.295609390212225,-1.1444093161117215,-3.004074454793269,-18.024446728759614,-33.18787016723992,-2.145767467709478,-11.01493966757532,-0.7816715057393374
272,0.20454993844032288,0.5722046580558607,7.295609390212225,-1.1444093161117215,-3.004074454793269,-18.024446728759614,-33.18787016723992,-2.4318697967374083,-11.157990832089284,-0.7812232467650428
273,0.20504993200302124,0.5722046580558607,7.43866055472619,-1.1444093161117215,-3.004074454793269,-18.024446728759614,-33.18787016723992,-2.4318697967374083,-11.157990832089284,-0.7807750011496806
274,0.2055499255657196,0.5722046580558607,7.43866055472619,-1.1444093161117215,-3.004074454793269,-18.024446728759614,-33.18787016723992,-2.4318697967374083,-11.30104199660325,-0.7803267555343182
275,0.20604993402957916,0.5722046580558607,7.43866055472619,-1.1444093161117215,-3.004074454793269,-17.88139556424565,-33.18787016723992,-2.288818632223443,-11.30104199660325,-0.7798784965600236
276,0.20654992759227753,0.5722046580558607,7.43866055472619,-1.0013581515977563,-3.004074454793269,-18.024446728759614,-33.18787016723992,-2.288818632223443,-11.30104199660325,-0.7794302509446613
277,0.20704993605613708,0.5722046580558607,7.43866055472619,-1.1444093161117215,-3.1471256193072343,-18.024446728759614,-33.33092133175389,-2.288818632223443,-11.01493966757532,-0.7789819919703668
278,0.20754992961883545,0.5722046580558607,7.43866055472619,-1.1444093161117215,-3.004074454793269,-18.024446728759614,-33.18787016723992,-2.4318697967374083,-11.01493966757532,-0.7785337463550045
279,0.208049938082695,0.5722046580558607,7.43866055472619,-1.0013581515977563,-3.004074454793269,-18.024446728759614,-33.33092133175389,-2.4318697967374083,-11.157990832089284,-0.7780854873807098
280,0.20854993164539337,0.5722046580558607,7.43866055472619,-1.0013581515977563,-3.004074454793269,-17.88139556424565,-33.18787016723992,-2.145767467709478,-11.01493966757532,-0.7776372417653475
281,0.20904992520809174,0.5722046580558607,7.43866055472619,-1.0013581515977563,-3.004074454793269,-17.88139556424565,-33.33092133175389,-2.0027163031955126,-11.01493966757532,-0.7771889961499853
282,0.2095499336719513,0.5722046580558607,7.43866055472619,-1.1444093161117215,-3.004074454793269,-17.88139556424565,-33.18787016723992,-2.145767467709478,-11.01493966757532,-0.7767407371756907
283,0.21004992723464966,0.5722046580558607,7.581711719240155,-1.0013581515977563,-3.004074454793269,-17.88139556424565,-33.18787016723992,-2.288818632223443,-11.157990832089284,-0.7761894237440211
284,0.21054993569850922,0.5722046580558607,7.581711719240155,-1.0013581515977563,-3.004074454793269,-17.88139556424565,-33.33092133175389,-2.288818632223443,-11.01493966757532,-0.7755693765432118
285,0.21104992926120758,0.5722046580558607,7.43866055472619,-1.0013581515977563,-3.004074454793269,-17.88139556424565,-33.33092133175389,-2.288818632223443,-11.01493966757532,-0.7749493478209364
286,0.21154993772506714,0.5722046580558607,7.43866055472619,-1.1444093161117215,-3.004074454793269,-17.88139556424565,-33.33092133175389,-2.145767467709478,-11.157990832089284,-0.7743293006201272
287,0.2120499312877655,0.5722046580558607,7.43866055472619,-1.0013581515977563,-3.004074454793269,-17.738344399731684,-33.473972496267855,-1.7166139741675823,-11.157990832089284,-0.7737092718978517
288,0.21254992485046387,0.5722046580558607,7.43866055472619,-1.1444093161117215,-3.004074454793269,-17.88139556424565,-33.473972496267855,-1.5735628096536172,-11.30104199660325,-0.7730892431755761
289,0.21304993331432343,0.5722046580558607,7.581711719240155,-1.0013581515977563,-3.004074454793269,-17.738344399731684,-33.473972496267855,-1.5735628096536172,-11.157990832089284,-0.7724691959747669
290,0.2135499268770218,0.5722046580558607,7.581711719240155,-1.0013581515977563,-3.004074454793269,-17.738344399731684,-33.473972496267855,-1.8596651386815475,-11.157990832089284,-0.7718491672524914
291,0.21404993534088135,0.5722046580558607,7.581711719240155,-1.0013581515977563,-3.004074454793269,-17.88139556424565,-33.473972496267855,-2.0027163031955126,-11.01493966757532,-0.7712291200516822
292,0.2145499289035797,0.715255822569826,7.43866055472619,-1.0013581515977563,-3.004074454793269,-17.88139556424565,-33.473972496267855,-2.145767467709478,-11.01493966757532,-0.7706090913294067
293,0.21504993736743927,0.5722046580558607,7.43866055472619,-1.0013581515977563,-3.004074454793269,-17.88139556424565,-33.473972496267855,-2.5749209612513733,-11.01493966757532,-0.7699890441285975
294,0.21554993093013763,0.715255822569826,7.43866055472619,-1.0013581515977563,-3.004074454793269,-17.88139556424565,-33.473972496267855,-2.7179721257653386,-11.01493966757532,-0.7693690154063221
295,0.2160499393939972,0.715255822569826,7.43866055472619,-1.0013581515977563,-3.004074454793269,-17.88139556424565,-33.473972496267855,-2.861023290279304,-11.01493966757532,-0.7687489682055128
296,0.21654993295669556,0.715255822569826,7.581711719240155,-1.0013581515977563,-3.004074454793269,-17.88139556424565,-33.473972496267855,-2.861023290279304,-11.157990832089284,-0.7681289394832373
297,0.21704992651939392,0.715255822569826,7.43866055472619,-1.1444093161117215,-3.004074454793269,-17.88139556424565,-33.473972496267855,-2.861023290279304,-11.01493966757532,-0.7675089107609618
298,0.21754993498325348,0.715255822569826,7.43866055472619,-1.0013581515977563,-3.004074454793269,-18.024446728759614,-33.473972496267855,-3.004074454793269,-11.01493966757532,-0.7668888635601526
299,0.21804992854595184,0.5722046580558607,7.43866055472619,-1.0013581515977563,-3.004074454793269,-17.88139556424565,-33.473972496267855,-3.004074454793269,-11.01493966757532,-0.7662688348378771
300,0.2185499370098114,0.5722046580558607,7.581711719240155,-1.0013581515977563,-3.004074454793269,-17.88139556424565,-33.473972496267855,-2.861023290279304,-11.01493966757532,-0.7656487876370679
301,0.21904993057250977,0.5722046580558607,7.581711719240155,-1.1444093161117215,-3.004074454793269,-17.88139556424565,-33.473972496267855,-2.4318697967374083,-11.157990832089284,-0.7650287589147924
302,0.21954993903636932,0.715255822569826,7.43866055472619,-1.1444093161117215,-2.861023290279304,-17.88139556424565,-33.473972496267855,-2.288818632223443,-11.157990832089284,-0.7644087117139832
303,0.2200499325990677,0.715255822569826,7.581711719240155,-1.0013581515977563,-3.004074454793269,-17.88139556424565,-33.473972496267855,-2.288818632223443,-11.157990832089284,-0.7635971242869377
304,0.22054992616176605,0.715255822569826,7.581711719240155,-1.0013581515977563,-3.004074454793269,-17.738344399731684,-33.473972496267855,-2.288818632223443,-11.01493966757532,-0.7627376543196969
305,0.2210499346256256,0.5722046580558607,7.43866055472619,-1.0013581515977563,-3.004074454793269,-17.738344399731684,-33.473972496267855,-2.4318697967374083,-11.01493966757532,-0.7618781587379252
306,0.22154992818832397,0.715255822569826,7.581711719240155,-1.0013581515977563,-3.004074454793269,-17.738344399731684,-33.473972496267855,-2.4318697967374083,-11.01493966757532,-0.7610186887706843
307,0.22204993665218353,0.715255822569826,7.581711719240155,-1.0013581515977563,-3.004074454793269,-17.738344399731684,-33.473972496267855,-2.288818632223443,-11.157990832089284,-0.7601591931889127
308,0.2225499302148819,0.715255822569826,7.581711719240155,-1.0013581515977563,-3.004074454793269,-17.738344399731684,-33.61702366078182,-2.145767467709478,-11.157990832089284,-0.7592997232216718
309,0.22304993867874146,0.715255822569826,7.581711719240155,-1.0013581515977563,-3.004074454793269,-17.738344399731684,-33.61702366078182,-2.145767467709478,-11.157990832089284,-0.7584402276399002
310,0.22354993224143982,0.715255822569826,7.581711719240155,-1.1444093161117215,-3.004074454793269,-17.595293235217717,-33.61702366078182,-2.0027163031955126,-11.157990832089284,-0.7575807576726592
311,0.22404992580413818,0.5722046580558607,7.581711719240155,-1.0013581515977563,-3.004074454793269,-17.595293235217717,-33.61702366078182,-2.145767467709478,-11.157990832089284,-0.7567212877054184
312,0.22454993426799774,0.715255822569826,7.581711719240155,-1.0013581515977563,-3.004074454793269,-17.595293235217717,-33.61702366078182,-2.288818632223443,-11.157990832089284,-0.7558617921236467
313,0.2250499278306961,0.5722046580558607,7.581711719240155,-1.0013581515977563,-3.004074454793269,-17.595293235217717,-33.61702366078182,-2.288818632223443,-11.01493966757532,-0.7550023221564058
314,0.22554993629455566,0.5722046580558607,7.581711719240155,-1.0013581515977563,-3.004074454793269,-17.595293235217717,-33.61702366078182,-2.288818632223443,-10.871888503061355,-0.7541428265746342
315,0.22604992985725403,0.5722046580558607,7.581711719240155,-1.0013581515977563,-3.004074454793269,-17.595293235217717,-33.61702366078182,-2.4318697967374083,-10.871888503061355,-0.7532833566073933
316,0.2265499383211136,0.5722046580558607,7.581711719240155,-1.0013581515977563,-3.004074454793269,-17.595293235217717,-33.61702366078182,-2.288818632223443,-11.01493966757532,-0.7524238610256216
317,0.22704993188381195,0.5722046580558607,7.581711719240155,-1.0013581515977563,-3.004074454793269,-17.595293235217717,-33.61702366078182,-2.145767467709478,-11.157990832089284,-0.7515643910583807
318,0.22754992544651031,0.5722046580558607,7.724762883754121,-1.0013581515977563,-3.004074454793269,-17.595293235217717,-33.61702366078182,-2.0027163031955126,-11.30104199660325,-0.7507049210911398
319,0.22804993391036987,0.5722046580558607,7.724762883754121,-1.0013581515977563,-3.004074454793269,-17.452242070703754,-33.61702366078182,-2.0027163031955126,-11.444093161117216,-0.7498454255093682
320,0.22854992747306824,0.5722046580558607,7.724762883754121,-1.0013581515977563,-3.004074454793269,-17.452242070703754,-33.61702366078182,-1.8596651386815475,-11.587144325631181,-0.7489859555421273
321,0.2290499359369278,0.5722046580558607,7.867814048268086,-1.0013581515977563,-2.861023290279304,-17.452242070703754,-33.61702366078182,-2.0027163031955126,-11.587144325631181,-0.7481264599603556
322,0.22954992949962616,0.5722046580558607,7.867814048268086,-1.0013581515977563,-2.861023290279304,-17.452242070703754,-33.61702366078182,-2.0027163031955126,-11.444093161117216,-0.7472669899931148
323,0.23004993796348572,0.5722046580558607,7.867814048268086,-1.0013581515977563,-2.861023290279304,-17.452242070703754,-33.61702366078182,-2.145767467709478,-11.30104199660325,-0.7463694121036967
324,0.23054993152618408,0.5722046580558607,7.724762883754121,-1.0013581515977563,-2.861023290279304,-17.452242070703754,-33.61702366078182,-2.288818632223443,-11.157990832089284,-0.7453195362728335
325,0.23104992508888245,0.5722046580558607,7.867814048268086,-1.0013581515977563,-2.861023290279304,-17.452242070703754,-33.61702366078182,-2.4318697967374083,-11.157990832089284,-0.7442696604419705
326,0.231549933552742,0.5722046580558607,7.724762883754121,-1.0013581515977563,-2.861023290279304,-17.452242070703754,-33.61702366078182,-2.5749209612513733,-11.01493966757532,-0.7432197533219667
327,0.23204992711544037,0.5722046580558607,7.867814048268086,-1.0013581515977563,-2.861023290279304,-17.452242070703754,-33.61702366078182,-2.861023290279304,-10.871888503061355,-0.7421698774911036
328,0.23254993557929993,0.5722046580558607,7.867814048268086,-1.0013581515977563,-2.861023290279304,-17.452242070703754,-33.61702366078182,-3.004074454793269,-10.871888503061355,-0.7411199703710998
329,0.2330499291419983,0.5722046580558607,7.867814048268086,-1.0013581515977563,-2.861023290279304,-17.452242070703754,-33.61702366078182,-3.1471256193072343,-10.871888503061355,-0.7400700945402366
330,0.23354993760585785,0.5722046580558607,7.867814048268086,-1.0013581515977563,-2.861023290279304,-17.452242070703754,-33.61702366078182,-3.004074454793269,-10.871888503061355,-0.7390201874202328
331,0.2340499311685562,0.5722046580558607,7.867814048268086,-1.0013581515977563,-2.861023290279304,-17.452242070703754,-33.61702366078182,-3.004074454793269,-11.01493966757532,-0.7379703115893698
332,0.23454992473125458,0.5722046580558607,7.724762883754121,-0.8583069870837912,-2.861023290279304,-17.309190906189787,-33.61702366078182,-2.861023290279304,-11.01493966757532,-0.7369204357585066
333,0.23504993319511414,0.5722046580558607,7.867814048268086,-1.0013581515977563,-2.861023290279304,-17.452242070703754,-33.76007482529579,-2.7179721257653386,-11.30104199660325,-0.7358705286385028
334,0.2355499267578125,0.5722046580558607,7.867814048268086,-1.0013581515977563,-2.861023290279304,-17.309190906189787,-33.76007482529579,-2.7179721257653386,-11.30104199660325,-0.7348206528076398
335,0.23604993522167206,0.5722046580558607,7.724762883754121,-1.0013581515977563,-2.861023290279304,-17.309190906189787,-33.61702366078182,-2.5749209612513733,-11.30104199660325,-0.7337707456876359
336,0.23654992878437042,0.5722046580558607,7.724762883754121,-0.8583069870837912,-2.861023290279304,-17.309190906189787,-33.76007482529579,-2.5749209612513733,-11.30104199660325,-0.7327208698567729
337,0.23704993724822998,0.5722046580558607,7.867814048268086,-0.8583069870837912,-2.861023290279304,-17.309190906189787,-33.76007482529579,-2.4318697967374083,-11.444093161117216,-0.7316709627367689
338,0.23754993081092834,0.5722046580558607,7.867814048268086,-0.8583069870837912,-2.861023290279304,-17.309190906189787,-33.76007482529579,-2.4318697967374083,-11.444093161117216,-0.7306210869059059
339,0.2380499392747879,0.5722046580558607,7.867814048268086,-0.8583069870837912,-2.861023290279304,-17.309190906189787,-33.76007482529579,-2.5749209612513733,-11.30104199660325,-0.729571179785902
340,0.23854993283748627,0.5722046580558607,7.867814048268086,-1.0013581515977563,-2.861023290279304,-17.166139741675824,-33.76007482529579,-2.5749209612513733,-11.444093161117216,-0.728521303955039
341,0.23914992809295654,0.5722046580558607,7.867814048268086,-1.0013581515977563,-2.861023290279304,-17.166139741675824,-33.76007482529579,-2.7179721257653386,-11.444093161117216,-0.7272614467001751
342,0.2396499365568161,0.5722046580558607,7.867814048268086,-1.0013581515977563,-2.861023290279304,-17.166139741675824,-33.90312598980975,-2.5749209612513733,-11.587144325631181,-0.7262115395801713
343,0.24014993011951447,0.5722046580558607,7.867814048268086,-1.0013581515977563,-2.861023290279304,-17.166139741675824,-33.76007482529579,-2.5749209612513733,-11.587144325631181,-0.7250015750151731
344,0.24064993858337402,0.5722046580558607,7.867814048268086,-1.0013581515977563,-2.861023290279304,-17.023088577161857,-33.90312598980975,-2.5749209612513733,-11.587144325631181,-0.7237915743899567
345,0.2411499321460724,0.5722046580558607,7.724762883754121,-1.0013581515977563,-2.861023290279304,-17.023088577161857,-33.90312598980975,-2.4318697967374083,-11.730195490145146,-0.7225816098249586
346,0.24164992570877075,0.715255822569826,7.867814048268086,-1.0013581515977563,-2.861023290279304,-17.023088577161857,-33.90312598980975,-2.4318697967374083,-11.730195490145146,-0.7213716452599604
347,0.2421499341726303,0.5722046580558607,7.867814048268086,-1.0013581515977563,-2.861023290279304,-17.023088577161857,-33.90312598980975,-2.4318697967374083,-11.730195490145146,-0.720161644634744
348,0.24264992773532867,0.5722046580558607,7.867814048268086,-1.0013581515977563,-2.861023290279304,-17.023088577161857,-33.90312598980975,-2.4318697967374083,-11.730195490145146,-0.7189516800697459
349,0.24314993619918823,0.715255822569826,7.867814048268086,-1.0013581515977563,-2.861023290279304,-17.023088577161857,-33.90312598980975,-2.4318697967374083,-11.730195490145146,-0.7177416794445294
350,0.2436499297618866,0.715255822569826,7.867814048268086,-1.0013581515977563,-2.861023290279304,-17.023088577161857,-33.90312598980975,-2.5749209612513733,-11.730195490145146,-0.7165317148795313
351,0.24414993822574615,0.715255822569826,7.867814048268086,-1.0013581515977563,-2.861023290279304,-16.880037412647894,-33.90312598980975,-2.5749209612513733,-11.730195490145146,-0.7153217142543148
352,0.24464993178844452,0.715255822569826,7.867814048268086,-1.0013581515977563,-2.861023290279304,-17.023088577161857,-33.90312598980975,-2.7179721257653386,-11.730195490145146,-0.7141117496893167
353,0.24514992535114288,0.5722046580558607,7.724762883754121,-1.0013581515977563,-2.861023290279304,-17.023088577161857,-34.046177154323715,-2.7179721257653386,-11.587144325631181,-0.7129017851243186
354,0.24564993381500244,0.715255822569826,7.867814048268086,-1.0013581515977563,-2.861023290279304,-16.880037412647894,-34.046177154323715,-2.7179721257653386,-11.587144325631181,-0.7116917844991021
355,0.2461499273777008,0.715255822569826,7.724762883754121,-1.0013581515977563,-2.861023290279304,-16.880037412647894,-34.046177154323715,-2.7179721257653386,-11.444093161117216,-0.710481819934104
356,0.24664993584156036,0.715255822569826,7.724762883754121,-0.8583069870837912,-2.861023290279304,-16.880037412647894,-34.046177154323715,-2.5749209612513733,-11.30104199660325,-0.7092718193088875
357,0.24714992940425873,0.715255822569826,7.724762883754121,-0.8583069870837912,-2.861023290279304,-16.880037412647894,-34.046177154323715,-2.4318697967374083,-11.30104199660325,-0.7080618547438894
358,0.2476499378681183,0.715255822569826,7.724762883754121,-1.0013581515977563,-2.861023290279304,-16.880037412647894,-34.046177154323715,-2.4318697967374083,-11.30104199660325,-0.7068518541186729
359,0.24814993143081665,0.715255822569826,7.724762883754121,-0.8583069870837912,-2.861023290279304,-16.880037412647894,-34.046177154323715,-2.4318697967374083,-11.157990832089284,-0.7056418895536748
360,0.24864992499351501,0.715255822569826,7.724762883754121,-1.0013581515977563,-2.861023290279304,-17.023088577161857,-34.046177154323715,-2.7179721257653386,-11.01493966757532,-0.7044319249886767
361,0.24914993345737457,0.715255822569826,7.867814048268086,-0.8583069870837912,-2.7179721257653386,-16.880037412647894,-34.046177154323715,-2.861023290279304,-11.01493966757532,-0.7032219243634602
362,0.24964992702007294,0.715255822569826,7.867814048268086,-0.8583069870837912,-2.7179721257653386,-16.880037412647894,-34.046177154323715,-2.861023290279304,-10.871888503061355,-0.7020119597984621
363,0.2501499354839325,0.715255822569826,7.867814048268086,-0.8583069870837912,-2.861023290279304,-16.880037412647894,-34.046177154323715,-2.861023290279304,-11.01493966757532,-0.7006697011054616
364,0.25064992904663086,0.715255822569826,7.867814048268086,-0.8583069870837912,-2.861023290279304,-16.880037412647894,-34.18922831883768,-2.861023290279304,-11.01493966757532,-0.6993274824142102
365,0.2511499226093292,0.715255822569826,7.867814048268086,-0.8583069870837912,-2.861023290279304,-16.880037412647894,-34.18922831883768,-2.861023290279304,-11.01493966757532,-0.6979852637229588
366,0.25164994597435,0.715255822569826,7.867814048268086,-0.8583069870837912,-2.7179721257653386,-16.880037412647894,-34.18922831883768,-2.861023290279304,-11.157990832089284,-0.6966429650282091
367,0.25214993953704834,0.715255822569826,7.867814048268086,-0.8583069870837912,-2.861023290279304,-16.880037412647894,-34.18922831883768,-2.861023290279304,-11.157990832089284,-0.6953007463369578
368,0.2526499330997467,0.715255822569826,7.724762883754121,-0.8583069870837912,-2.861023290279304,-16.880037412647894,-34.18922831883768,-2.7179721257653386,-11.157990832089284,-0.6939585276457064
369,0.25314992666244507,0.715255822569826,7.867814048268086,-0.8583069870837912,-2.861023290279304,-16.880037412647894,-34.18922831883768,-2.7179721257653386,-11.157990832089284,-0.692616308954455
370,0.25364992022514343,0.715255822569826,7.867814048268086,-1.0013581515977563,-2.861023290279304,-16.736986248133928,-34.18922831883768,-2.7179721257653386,-11.157990832089284,-0.6912740902632036
371,0.2541499435901642,0.715255822569826,7.867814048268086,-1.0013581515977563,-2.861023290279304,-16.880037412647894,-34.18922831883768,-2.5749209612513733,-11.30104199660325,-0.689931791568454
372,0.25464993715286255,0.715255822569826,7.867814048268086,-0.8583069870837912,-2.861023290279304,-16.736986248133928,-34.18922831883768,-2.5749209612513733,-11.30104199660325,-0.6885895728772026
373,0.2551499307155609,0.715255822569826,7.867814048268086,-0.8583069870837912,-2.7179721257653386,-16.736986248133928,-34.18922831883768,-2.4318697967374083,-11.30104199660325,-0.6872473541859512
374,0.2556499242782593,0.715255822569826,7.867814048268086,-1.0013581515977563,-2.861023290279304,-16.736986248133928,-34.33227948335165,-2.4318697967374083,-11.444093161117216,-0.6859051354946999
375,0.25614991784095764,0.715255822569826,7.867814048268086,-0.8583069870837912,-2.861023290279304,-16.736986248133928,-34.33227948335165,-2.4318697967374083,-11.444093161117216,-0.6845629168034485
376,0.2566499412059784,0.715255822569826,7.867814048268086,-1.0013581515977563,-2.7179721257653386,-16.59393508361996,-34.33227948335165,-2.4318697967374083,-11.444093161117216,-0.6832206181086988
377,0.25714993476867676,0.715255822569826,7.867814048268086,-1.0013581515977563,-2.861023290279304,-16.59393508361996,-34.33227948335165,-2.4318697967374083,-11.30104199660325,-0.6818783994174474
378,0.2576499283313751,0.715255822569826,7.867814048268086,-1.0013581515977563,-2.861023290279304,-16.59393508361996,-34.33227948335165,-2.4318697967374083,-11.30104199660325,-0.680536180726196
379,0.2581499218940735,0.715255822569826,7.867814048268086,-1.0013581515977563,-2.861023290279304,-16.59393508361996,-34.33227948335165,-2.4318697967374083,-11.30104199660325,-0.6791939620349446
380,0.25864994525909424,0.715255822569826,7.867814048268086,-1.0013581515977563,-2.861023290279304,-16.59393508361996,-34.33227948335165,-2.4318697967374083,-11.30104199660325,-0.677851663340195
381,0.2591499388217926,0.5722046580558607,7.867814048268086,-1.0013581515977563,-2.861023290279304,-16.450883919105998,-34.33227948335165,-2.5749209612513733,-11.444093161117216,-0.6765094446489436
382,0.25964993238449097,0.715255822569826,7.867814048268086,-1.0013581515977563,-2.861023290279304,-16.59393508361996,-34.33227948335165,-2.5749209612513733,-11.444093161117216,-0.6751672259576923
383,0.26014992594718933,0.5722046580558607,7.867814048268086,-1.0013581515977563,-2.861023290279304,-16.450883919105998,-34.33227948335165,-2.5749209612513733,-11.444093161117216,-0.6737207864443281
384,0.2606499195098877,0.5722046580558607,7.867814048268086,-1.0013581515977563,-2.861023290279304,-16.450883919105998,-34.47533064786561,-2.4318697967374083,-11.444093161117216,-0.6722482956078982
385,0.26114994287490845,0.715255822569826,7.867814048268086,-1.0013581515977563,-2.861023290279304,-16.450883919105998,-34.47533064786561,-2.4318697967374083,-11.444093161117216,-0.6707757170030452
386,0.2616499364376068,0.5722046580558607,7.867814048268086,-1.0013581515977563,-2.861023290279304,-16.450883919105998,-34.47533064786561,-2.4318697967374083,-11.444093161117216,-0.6693032261666153
387,0.2621499300003052,0.715255822569826,7.867814048268086,-1.0013581515977563,-2.861023290279304,-16.450883919105998,-34.47533064786561,-2.4318697967374083,-11.444093161117216,-0.6678307353301854
388,0.26264992356300354,0.715255822569826,7.867814048268086,-1.0013581515977563,-2.861023290279304,-16.30783275459203,-34.47533064786561,-2.4318697967374083,-11.444093161117216,-0.6663582444937556
389,0.2631499469280243,0.715255822569826,7.867814048268086,-1.0013581515977563,-2.7179721257653386,-16.30783275459203,-34.47533064786561,-2.4318697967374083,-11.444093161117216,-0.6648856658889025
390,0.26364994049072266,0.715255822569826,7.867814048268086,-1.0013581515977563,-2.861023290279304,-16.30783275459203,-34.47533064786561,-2.4318697967374083,-11.444093161117216,-0.6634131750524727
391,0.264149934053421,0.715255822569826,7.867814048268086,-1.0013581515977563,-2.861023290279304,-16.30783275459203,-34.47533064786561,-2.4318697967374083,-11.444093161117216,-0.6619406842160428
392,0.2646499276161194,0.715255822569826,7.724762883754121,-1.0013581515977563,-2.861023290279304,-16.30783275459203,-34.47533064786561,-2.4318697967374083,-11.587144325631181,-0.6604681933796129
393,0.26514992117881775,0.715255822569826,7.867814048268086,-1.0013581515977563,-2.861023290279304,-16.30783275459203,-34.47533064786561,-2.5749209612513733,-11.587144325631181,-0.6589957025431831
394,0.2656499445438385,0.715255822569826,7.724762883754121,-1.0013581515977563,-2.861023290279304,-16.30783275459203,-34.47533064786561,-2.4318697967374083,-11.730195490145146,-0.65752312393833
395,0.26614993810653687,0.715255822569826,7.867814048268086,-1.0013581515977563,-2.7179721257653386,-16.30783275459203,-34.47533064786561,-2.4318697967374083,-11.587144325631181,-0.6560506331019001
396,0.26664993166923523,0.715255822569826,7.867814048268086,-1.0013581515977563,-2.7179721257653386,-16.30783275459203,-34.618381812379575,-2.4318697967374083,-11.730195490145146,-0.6545781422654703
397,0.2671499252319336,0.715255822569826,7.867814048268086,-0.8583069870837912,-2.7179721257653386,-16.30783275459203,-34.47533064786561,-2.4318697967374083,-11.730195490145146,-0.6531056514290404
398,0.26764991879463196,0.715255822569826,7.867814048268086,-0.8583069870837912,-2.7179721257653386,-16.30783275459203,-34.47533064786561,-2.4318697967374083,-11.730195490145146,-0.6516331605926107
399,0.2681499421596527,0.715255822569826,7.867814048268086,-1.0013581515977563,-2.7179721257653386,-16.30783275459203,-34.47533064786561,-2.4318697967374083,-11.730195490145146,-0.6501605819877575
400,0.2686499357223511,0.715255822569826,7.867814048268086,-1.0013581515977563,-2.7179721257653386,-16.30783275459203,-34.47533064786561,-2.4318697967374083,-11.730195490145146,-0.6486880911513276
401,0.26914992928504944,0.715255822569826,7.867814048268086,-1.0013581515977563,-2.7179721257653386,-16.30783275459203,-34.47533064786561,-2.4318697967374083,-11.730195490145146,-0.6472156003148978
402,0.2696499228477478,0.715255822569826,7.867814048268086,-1.0013581515977563,-2.7179721257653386,-16.164781590078068,-34.618381812379575,-2.4318697967374083,-11.730195490145146,-0.645743109478468
403,0.27014994621276855,0.8583069870837912,7.867814048268086,-1.0013581515977563,-2.7179721257653386,-16.30783275459203,-34.618381812379575,-2.5749209612513733,-11.730195490145146,-0.6441530918042896
404,0.2706499397754669,0.715255822569826,7.867814048268086,-1.0013581515977563,-2.7179721257653386,-16.164781590078068,-34.618381812379575,-2.5749209612513733,-11.87324665465911,-0.6425338065060754
405,0.2711499333381653,0.715255822569826,7.867814048268086,-1.0013581515977563,-2.7179721257653386,-16.30783275459203,-34.618381812379575,-2.5749209612513733,-11.87324665465911,-0.6409145212078612
406,0.27164992690086365,0.715255822569826,7.867814048268086,-0.8583069870837912,-2.861023290279304,-16.164781590078068,-34.618381812379575,-2.5749209612513733,-11.87324665465911,-0.6392952359096469
407,0.272149920463562,0.715255822569826,7.867814048268086,-1.0013581515977563,-2.7179721257653386,-16.164781590078068,-34.618381812379575,-2.7179721257653386,-11.87324665465911,-0.6376759506114327
408,0.27264994382858276,0.715255822569826,7.867814048268086,-0.8583069870837912,-2.7179721257653386,-16.164781590078068,-34.618381812379575,-2.7179721257653386,-12.016297819173076,-0.6360565687950508
409,0.27314993739128113,0.8583069870837912,7.867814048268086,-1.0013581515977563,-2.7179721257653386,-16.164781590078068,-34.618381812379575,-2.5749209612513733,-11.87324665465911,-0.6344372834968365
410,0.2736499309539795,0.715255822569826,7.867814048268086,-0.8583069870837912,-2.7179721257653386,-16.164781590078068,-34.618381812379575,-2.5749209612513733,-12.016297819173076,-0.6328179981986223
411,0.27414992451667786,0.8583069870837912,7.867814048268086,-1.0013581515977563,-2.861023290279304,-16.164781590078068,-34.618381812379575,-2.7179721257653386,-11.87324665465911,-0.6311987129004081
412,0.2746499180793762,0.8583069870837912,7.867814048268086,-0.8583069870837912,-2.7179721257653386,-16.164781590078068,-34.761432976893545,-2.7179721257653386,-12.016297819173076,-0.6295794276021938
413,0.275149941444397,0.8583069870837912,7.867814048268086,-1.0013581515977563,-2.7179721257653386,-16.164781590078068,-34.761432976893545,-2.7179721257653386,-11.87324665465911,-0.6279600457858119
414,0.27564993500709534,0.8583069870837912,7.867814048268086,-0.8583069870837912,-2.861023290279304,-16.0217304255641,-34.761432976893545,-2.7179721257653386,-12.016297819173076,-0.6263407604875977
415,0.2761499285697937,0.8583069870837912,7.867814048268086,-0.8583069870837912,-2.7179721257653386,-16.0217304255641,-34.761432976893545,-2.7179721257653386,-12.016297819173076,-0.6247214751893835
416,0.27664992213249207,0.8583069870837912,7.867814048268086,-0.8583069870837912,-2.861023290279304,-16.0217304255641,-34.761432976893545,-2.5749209612513733,-12.016297819173076,-0.6231021898911692
417,0.2771499454975128,0.8583069870837912,7.867814048268086,-1.0013581515977563,-2.861023290279304,-16.164781590078068,-34.761432976893545,-2.5749209612513733,-11.87324665465911,-0.6214828080747873
418,0.2776499390602112,0.8583069870837912,7.867814048268086,-0.8583069870837912,-2.861023290279304,-16.164781590078068,-34.761432976893545,-2.5749209612513733,-11.87324665465911,-0.6198635227765731
419,0.27814993262290955,0.8583069870837912,7.867814048268086,-1.0013581515977563,-2.7179721257653386,-16.164781590078068,-34.761432976893545,-2.4318697967374083,-11.87324665465911,-0.6182442374783589
420,0.2786499261856079,0.8583069870837912,7.867814048268086,-1.0013581515977563,-2.7179721257653386,-16.164781590078068,-34.761432976893545,-2.4318697967374083,-11.87324665465911,-0.6166249521801446
421,0.2791499197483063,0.8583069870837912,7.867814048268086,-0.8583069870837912,-2.7179721257653386,-16.0217304255641,-34.761432976893545,-2.4318697967374083,-11.87324665465911,-0.6150056668819304
422,0.279649943113327,0.8583069870837912,7.867814048268086,-1.0013581515977563,-2.7179721257653386,-16.164781590078068,-34.761432976893545,-2.4318697967374083,-12.016297819173076,-0.6133862850655485
423,0.2801499366760254,0.715255822569826,7.867814048268086,-0.8583069870837912,-2.7179721257653386,-16.164781590078068,-34.761432976893545,-2.4318697967374083,-12.016297819173076,-0.6116518638680558
424,0.28064993023872375,0.8583069870837912,7.867814048268086,-1.0013581515977563,-2.7179721257653386,-16.0217304255641,-34.761432976893545,-2.4318697967374083,-11.87324665465911,-0.609917442670563
425,0.2811499238014221,0.8583069870837912,7.867814048268086,-0.8583069870837912,-2.7179721257653386,-16.0217304255641,-34.761432976893545,-2.5749209612513733,-12.016297819173076,-0.6081830214730704
426,0.2816499173641205,0.8583069870837912,7.724762883754121,-0.8583069870837912,-2.7179721257653386,-16.0217304255641,-34.761432976893545,-2.4318697967374083,-12.016297819173076,-0.6064486002755776
427,0.28214994072914124,0.8583069870837912,7.867814048268086,-1.0013581515977563,-2.7179721257653386,-16.0217304255641,-34.761432976893545,-2.5749209612513733,-12.016297819173076,-0.6047140756971945
428,0.2826499342918396,0.8583069870837912,7.867814048268086,-0.8583069870837912,-2.7179721257653386,-16.0217304255641,-34.90448414140751,-2.5749209612513733,-11.87324665465911,-0.6029796544997018
429,0.28314992785453796,0.8583069870837912,7.867814048268086,-0.8583069870837912,-2.7179721257653386,-16.0217304255641,-34.761432976893545,-2.5749209612513733,-11.87324665465911,-0.601245233302209
430,0.28364992141723633,0.8583069870837912,7.867814048268086,-0.8583069870837912,-2.7179721257653386,-16.0217304255641,-34.90448414140751,-2.5749209612513733,-12.016297819173076,-0.5995108121047164
431,0.2841499447822571,0.8583069870837912,7.867814048268086,-0.8583069870837912,-2.7179721257653386,-16.0217304255641,-34.761432976893545,-2.5749209612513733,-11.87324665465911,-0.5977762875263333
432,0.28464993834495544,0.8583069870837912,7.867814048268086,-0.8583069870837912,-2.7179721257653386,-16.0217304255641,-34.90448414140751,-2.5749209612513733,-12.016297819173076,-0.5960418663288405
433,0.2851499319076538,0.8583069870837912,7.867814048268086,-0.8583069870837912,-2.7179721257653386,-16.0217304255641,-34.90448414140751,-2.5749209612513733,-12.016297819173076,-0.5943074451313478
434,0.2856499254703522,0.8583069870837912,7.867814048268086,-0.8583069870837912,-2.7179721257653386,-16.0217304255641,-34.90448414140751,-2.5749209612513733,-11.87324665465911,-0.592573023933855
435,0.28614991903305054,0.8583069870837912,7.867814048268086,-0.8583069870837912,-2.7179721257653386,-16.0217304255641,-34.90448414140751,-2.7179721257653386,-11.87324665465911,-0.5908386027363624
436,0.2866499423980713,0.8583069870837912,7.867814048268086,-0.8583069870837912,-2.7179721257653386,-16.0217304255641,-34.90448414140751,-2.7179721257653386,-11.87324665465911,-0.5891040781579793
437,0.28714993596076965,0.8583069870837912,7.867814048268086,-0.8583069870837912,-2.7179721257653386,-16.0217304255641,-34.90448414140751,-2.7179721257653386,-11.87324665465911,-0.5873696569604865
438,0.287649929523468,0.8583069870837912,7.867814048268086,-0.8583069870837912,-2.7179721257653386,-16.0217304255641,-34.90448414140751,-2.7179721257653386,-11.87324665465911,-0.5856352357629938
439,0.2881499230861664,0.8583069870837912,7.867814048268086,-0.8583069870837912,-2.7179721257653386,-16.164781590078068,-34.90448414140751,-2.5749209612513733,-11.87324665465911,-0.583900814565501
440,0.28864994645118713,0.8583069870837912,7.867814048268086,-0.8583069870837912,-2.7179721257653386,-16.164781590078068,-34.90448414140751,-2.5749209612513733,-12.016297819173076,-0.582166289987118
441,0.2891499400138855,0.8583069870837912,7.867814048268086,-0.8583069870837912,-2.7179721257653386,-16.0217304255641,-34.90448414140751,-2.5749209612513733,-12.016297819173076,-0.5804318687896253
442,0.28964993357658386,0.8583069870837912,7.867814048268086,-0.8583069870837912,-2.7179721257653386,-16.0217304255641,-34.90448414140751,-2.5749209612513733,-12.016297819173076,-0.5786974475921325
443,0.2901499271392822,0.8583069870837912,7.867814048268086,-0.8583069870837912,-2.861023290279304,-16.0217304255641,-34.90448414140751,-2.5749209612513733,-12.016297819173076,-0.5768427764977176
444,0.2906499207019806,0.8583069870837912,7.867814048268086,-0.8583069870837912,-2.7179721257653386,-16.0217304255641,-34.90448414140751,-2.5749209612513733,-12.016297819173076,-0.5749580474086541
445,0.29114994406700134,0.8583069870837912,7.867814048268086,-0.8583069870837912,-2.861023290279304,-16.0217304255641,-34.90448414140751,-2.5749209612513733,-12.016297819173076,-0.5730732059795364
446,0.2916499376296997,0.8583069870837912,7.867814048268086,-0.8583069870837912,-2.7179721257653386,-16.0217304255641,-34.90448414140751,-2.5749209612513733,-12.016297819173076,-0.5711884768904728
447,0.29214993119239807,0.715255822569826,7.867814048268086,-0.8583069870837912,-2.861023290279304,-16.0217304255641,-34.90448414140751,-2.5749209612513733,-12.016297819173076,-0.5693037478014092
448,0.29264992475509644,0.715255822569826,7.867814048268086,-0.8583069870837912,-2.7179721257653386,-16.0217304255641,-34.90448414140751,-2.5749209612513733,-12.016297819173076,-0.5674190187123458
449,0.2931499183177948,0.715255822569826,7.867814048268086,-0.8583069870837912,-2.7179721257653386,-16.0217304255641,-34.90448414140751,-2.5749209612513733,-12.016297819173076,-0.5655342896232822
450,0.29364994168281555,0.8583069870837912,7.867814048268086,-0.8583069870837912,-2.7179721257653386,-16.0217304255641,-34.90448414140751,-2.5749209612513733,-12.016297819173076,-0.5636494481941645
451,0.2941499352455139,0.715255822569826,7.867814048268086,-0.8583069870837912,-2.861023290279304,-16.0217304255641,-34.90448414140751,-2.5749209612513733,-12.016297819173076,-0.561764719105101
452,0.2946499288082123,0.715255822569826,7.867814048268086,-0.8583069870837912,-2.861023290279304,-16.0217304255641,-34.90448414140751,-2.5749209612513733,-12.016297819173076,-0.5598799900160374
453,0.29514992237091064,0.715255822569826,7.867814048268086,-0.8583069870837912,-2.7179721257653386,-16.0217304255641,-34.90448414140751,-2.5749209612513733,-12.016297819173076,-0.5579952609269738
454,0.2956499457359314,0.715255822569826,7.867814048268086,-0.8583069870837912,-2.7179721257653386,-16.0217304255641,-34.90448414140751,-2.5749209612513733,-11.87324665465911,-0.5561104194978561
455,0.29614993929862976,0.715255822569826,7.867814048268086,-0.8583069870837912,-2.7179721257653386,-16.164781590078068,-34.90448414140751,-2.5749209612513733,-11.87324665465911,-0.5542256904087927
456,0.2966499328613281,0.715255822569826,7.867814048268086,-0.8583069870837912,-2.7179721257653386,-16.164781590078068,-35.04753530592147,-2.5749209612513733,-11.730195490145146,-0.5523409613197291
457,0.2971499264240265,0.715255822569826,7.867814048268086,-0.715255822569826,-2.7179721257653386,-16.164781590078068,-35.04753530592147,-2.5749209612513733,-11.730195490145146,-0.5504562322306655
458,0.29764991998672485,0.715255822569826,7.867814048268086,-0.8583069870837912,-2.7179721257653386,-16.164781590078068,-35.04753530592147,-2.5749209612513733,-11.730195490145146,-0.548571503141602
459,0.2981499433517456,0.715255822569826,7.867814048268086,-0.8583069870837912,-2.7179721257653386,-16.164781590078068,-35.04753530592147,-2.5749209612513733,-11.87324665465911,-0.5466866617124843
460,0.29864993691444397,0.715255822569826,7.867814048268086,-0.8583069870837912,-2.7179721257653386,-16.0217304255641,-34.90448414140751,-2.7179721257653386,-12.016297819173076,-0.5448019326234207
461,0.29914993047714233,0.715255822569826,7.867814048268086,-0.8583069870837912,-2.7179721257653386,-16.164781590078068,-35.04753530592147,-2.7179721257653386,-12.15934898368704,-0.5429172035343572
462,0.2996499240398407,0.715255822569826,7.867814048268086,-0.8583069870837912,-2.7179721257653386,-16.0217304255641,-35.04753530592147,-2.5749209612513733,-12.15934898368704,-0.5410324744452937
463,0.30014991760253906,0.5722046580558607,7.867814048268086,-0.8583069870837912,-2.7179721257653386,-16.164781590078068,-35.04753530592147,-2.5749209612513733,-12.15934898368704,-0.5390982308599507
464,0.3006499409675598,0.715255822569826,7.867814048268086,-0.715255822569826,-2.7179721257653386,-16.0217304255641,-35.04753530592147,-2.5749209612513733,-12.016297819173076,-0.5370895810525056
465,0.3011499345302582,0.5722046580558607,7.867814048268086,-0.8583069870837912,-2.7179721257653386,-16.164781590078068,-35.04753530592147,-2.7179721257653386,-12.15934898368704,-0.5350810509643242
466,0.30164992809295654,0.715255822569826,7.867814048268086,-0.715255822569826,-2.7179721257653386,-16.0217304255641,-35.04753530592147,-2.5749209612513733,-12.15934898368704,-0.533072520876143
467,0.3021499216556549,0.5722046580558607,7.867814048268086,-0.8583069870837912,-2.7179721257653386,-16.164781590078068,-35.04753530592147,-2.5749209612513733,-12.15934898368704,-0.5310639907879616
468,0.30264994502067566,0.5722046580558607,7.867814048268086,-0.8583069870837912,-2.7179721257653386,-16.164781590078068,-35.04753530592147,-2.5749209612513733,-12.15934898368704,-0.5290553409805165
469,0.303149938583374,0.5722046580558607,7.867814048268086,-0.8583069870837912,-2.7179721257653386,-16.164781590078068,-35.04753530592147,-2.5749209612513733,-12.15934898368704,-0.5270468108923353
470,0.3036499321460724,0.5722046580558607,7.867814048268086,-0.8583069870837912,-2.7179721257653386,-16.164781590078068,-35.04753530592147,-2.5749209612513733,-12.15934898368704,-0.5250382808041539
471,0.30414992570877075,0.5722046580558607,7.867814048268086,-0.8583069870837912,-2.7179721257653386,-16.164781590078068,-35.04753530592147,-2.5749209612513733,-12.15934898368704,-0.5230297507159727
472,0.3046499192714691,0.5722046580558607,7.867814048268086,-0.8583069870837912,-2.7179721257653386,-16.164781590078068,-35.04753530592147,-2.5749209612513733,-12.15934898368704,-0.5210212206277913
473,0.30514994263648987,0.5722046580558607,7.867814048268086,-0.8583069870837912,-2.7179721257653386,-16.164781590078068,-35.04753530592147,-2.5749209612513733,-12.15934898368704,-0.5190125708203462
474,0.30564993619918823,0.5722046580558607,7.867814048268086,-0.8583069870837912,-2.7179721257653386,-16.164781590078068,-35.04753530592147,-2.5749209612513733,-12.15934898368704,-0.5170040407321649
475,0.3061499297618866,0.5722046580558607,7.867814048268086,-0.8583069870837912,-2.7179721257653386,-16.164781590078068,-35.04753530592147,-2.5749209612513733,-12.15934898368704,-0.5149955106439836
476,0.30664992332458496,0.5722046580558607,7.867814048268086,-0.715255822569826,-2.7179721257653386,-16.164781590078068,-35.04753530592147,-2.5749209612513733,-12.15934898368704,-0.5129869805558023
477,0.3071499466896057,0.5722046580558607,7.867814048268086,-0.715255822569826,-2.7179721257653386,-16.164781590078068,-35.04753530592147,-2.5749209612513733,-12.016297819173076,-0.5109783307483572
478,0.3076499402523041,0.5722046580558607,7.867814048268086,-0.715255822569826,-2.7179721257653386,-16.164781590078068,-35.190586470435434,-2.5749209612513733,-12.15934898368704,-0.5089698006601759
479,0.30814993381500244,0.5722046580558607,7.867814048268086,-0.715255822569826,-2.7179721257653386,-16.164781590078068,-35.190586470435434,-2.5749209612513733,-12.15934898368704,-0.5069612705719946
480,0.3086499273777008,0.5722046580558607,7.867814048268086,-0.715255822569826,-2.7179721257653386,-16.0217304255641,-35.04753530592147,-2.5749209612513733,-12.302400148201006,-0.5049527404838132
481,0.30914992094039917,0.5722046580558607,7.867814048268086,-0.8583069870837912,-2.7179721257653386,-16.0217304255641,-35.190586470435434,-2.4318697967374083,-12.302400148201006,-0.502944210395632
482,0.3096499443054199,0.5722046580558607,7.867814048268086,-0.715255822569826,-2.7179721257653386,-16.0217304255641,-35.04753530592147,-2.4318697967374083,-12.302400148201006,-0.5009355605881869
483,0.3101499378681183,0.5722046580558607,7.867814048268086,-0.715255822569826,-2.7179721257653386,-16.0217304255641,-35.190586470435434,-2.288818632223443,-12.15934898368704,-0.4988645547551128
484,0.31064993143081665,0.5722046580558607,7.867814048268086,-0.715255822569826,-2.7179721257653386,-16.0217304255641,-35.190586470435434,-2.4318697967374083,-12.15934898368704,-0.49677793231317896
485,0.311149924993515,0.5722046580558607,7.867814048268086,-0.715255822569826,-2.7179721257653386,-16.0217304255641,-35.04753530592147,-2.4318697967374083,-12.15934898368704,-0.49469130987124516
486,0.3116499185562134,0.5722046580558607,7.724762883754121,-0.715255822569826,-2.7179721257653386,-16.164781590078068,-35.04753530592147,-2.4318697967374083,-12.15934898368704,-0.49260468742931135
487,0.31214994192123413,0.5722046580558607,7.867814048268086,-0.715255822569826,-2.7179721257653386,-16.0217304255641,-35.190586470435434,-2.5749209612513733,-12.15934898368704,-0.4905179406133868
488,0.3127499222755432,0.5722046580558607,7.867814048268086,-0.5722046580558607,-2.7179721257653386,-16.164781590078068,-35.190586470435434,-2.5749209612513733,-12.15934898368704,-0.4880140434326625
489,0.31324994564056396,0.5722046580558607,7.867814048268086,-0.5722046580558607,-2.7179721257653386,-16.164781590078068,-35.190586470435434,-2.5749209612513733,-12.15934898368704,-0.48592729661673806
490,0.31374993920326233,0.5722046580558607,7.867814048268086,-0.5722046580558607,-2.7179721257653386,-16.164781590078068,-35.04753530592147,-2.5749209612513733,-12.302400148201006,-0.48384067417480425
491,0.3142499327659607,0.5722046580558607,7.724762883754121,-0.5722046580558607,-2.7179721257653386,-16.164781590078068,-35.04753530592147,-2.7179721257653386,-12.15934898368704,-0.4817540517328704
492,0.31474992632865906,0.5722046580558607,7.867814048268086,-0.715255822569826,-2.7179721257653386,-16.164781590078068,-35.190586470435434,-2.7179721257653386,-12.15934898368704,-0.4796674292909366
493,0.3152499198913574,0.5722046580558607,7.867814048268086,-0.5722046580558607,-2.7179721257653386,-16.164781590078068,-35.190586470435434,-2.7179721257653386,-12.016297819173076,-0.4775808068490028
494,0.3157499432563782,0.5722046580558607,7.867814048268086,-0.5722046580558607,-2.7179721257653386,-16.30783275459203,-35.04753530592147,-2.7179721257653386,-12.016297819173076,-0.47549406003307826
495,0.31624993681907654,0.5722046580558607,7.867814048268086,-0.715255822569826,-2.7179721257653386,-16.164781590078068,-35.04753530592147,-2.7179721257653386,-12.15934898368704,-0.47340743759114445
496,0.3167499303817749,0.5722046580558607,7.867814048268086,-0.5722046580558607,-2.5749209612513733,-16.164781590078068,-35.190586470435434,-2.7179721257653386,-12.016297819173076,-0.47132081514921065
497,0.31724992394447327,0.5722046580558607,7.867814048268086,-0.5722046580558607,-2.7179721257653386,-16.30783275459203,-35.190586470435434,-2.7179721257653386,-12.016297819173076,-0.46923419270727684
498,0.31774991750717163,0.5722046580558607,7.867814048268086,-0.5722046580558607,-2.7179721257653386,-16.30783275459203,-35.190586470435434,-2.7179721257653386,-12.15934898368704,-0.46714757026534304
499,0.3182499408721924,0.5722046580558607,7.867814048268086,-0.5722046580558607,-2.7179721257653386,-16.30783275459203,-35.04753530592147,-2.5749209612513733,-12.016297819173076,-0.4650608234494185
500,0.31874993443489075,0.4291534935418956,7.867814048268086,-0.5722046580558607,-2.5749209612513733,-16.30783275459203,-35.190586470435434,-2.7179721257653386,-12.016297819173076,-0.4629742010074847
501,0.3192499279975891,0.5722046580558607,7.867814048268086,-0.5722046580558607,-2.7179721257653386,-16.164781590078068,-35.190586470435434,-2.5749209612513733,-12.15934898368704,-0.4608875785655509
502,0.3197499215602875,0.5722046580558607,7.867814048268086,-0.5722046580558607,-2.5749209612513733,-16.164781590078068,-35.190586470435434,-2.5749209612513733,-12.302400148201006,-0.45880095612361704
503,0.3202499449253082,0.5722046580558607,7.867814048268086,-0.5722046580558607,-2.5749209612513733,-16.30783275459203,-35.190586470435434,-2.5749209612513733,-12.302400148201006,-0.4566219237109565
504,0.3207499384880066,0.5722046580558607,7.867814048268086,-0.5722046580558607,-2.5749209612513733,-16.164781590078068,-35.190586470435434,-2.5749209612513733,-12.15934898368704,-0.4544199477109508
505,0.32124993205070496,0.5722046580558607,7.867814048268086,-0.5722046580558607,-2.5749209612513733,-16.164781590078068,-35.190586470435434,-2.5749209612513733,-12.15934898368704,-0.452217971710945
506,0.3217499256134033,0.5722046580558607,8.01086521278205,-0.5722046580558607,-2.5749209612513733,-16.164781590078068,-35.190586470435434,-2.5749209612513733,-12.016297819173076,-0.4500159957109393
507,0.3222499191761017,0.5722046580558607,7.867814048268086,-0.5722046580558607,-2.5749209612513733,-16.164781590078068,-35.190586470435434,-2.5749209612513733,-12.15934898368704,-0.4478140197109336
508,0.32274994254112244,0.5722046580558607,7.867814048268086,-0.5722046580558607,-2.5749209612513733,-16.164781590078068,-35.190586470435434,-2.5749209612513733,-12.15934898368704,-0.4456119124612408
509,0.3232499361038208,0.5722046580558607,7.867814048268086,-0.4291534935418956,-2.5749209612513733,-16.164781590078068,-35.190586470435434,-2.5749209612513733,-12.15934898368704,-0.4434099364612351
510,0.32374992966651917,0.5722046580558607,7.867814048268086,-0.4291534935418956,-2.5749209612513733,-16.164781590078068,-35.190586470435434,-2.5749209612513733,-12.302400148201006,-0.4412079604612294
511,0.32424992322921753,0.5722046580558607,7.867814048268086,-0.5722046580558607,-2.5749209612513733,-16.164781590078068,-35.190586470435434,-2.5749209612513733,-12.302400148201006,-0.4390059844612237
512,0.3247499465942383,0.4291534935418956,7.867814048268086,-0.5722046580558607,-2.5749209612513733,-16.164781590078068,-35.190586470435434,-2.5749209612513733,-12.302400148201006,-0.43680387721153086
513,0.32524994015693665,0.4291534935418956,7.867814048268086,-0.5722046580558607,-2.5749209612513733,-16.164781590078068,-35.190586470435434,-2.5749209612513733,-12.302400148201006,-0.43460190121152514
514,0.325749933719635,0.4291534935418956,7.724762883754121,-0.5722046580558607,-2.5749209612513733,-16.30783275459203,-35.190586470435434,-2.5749209612513733,-12.15934898368704,-0.43239992521151943
515,0.3262499272823334,0.4291534935418956,7.867814048268086,-0.5722046580558607,-2.5749209612513733,-16.164781590078068,-35.190586470435434,-2.5749209612513733,-12.15934898368704,-0.4301979492115137
516,0.32674992084503174,0.5722046580558607,7.867814048268086,-0.5722046580558607,-2.5749209612513733,-16.164781590078068,-35.190586470435434,-2.5749209612513733,-12.15934898368704,-0.427995973211508
517,0.3272499442100525,0.4291534935418956,7.867814048268086,-0.5722046580558607,-2.5749209612513733,-16.164781590078068,-35.190586470435434,-2.5749209612513733,-12.15934898368704,-0.42579386596181523
518,0.32774993777275085,0.5722046580558607,7.867814048268086,-0.5722046580558607,-2.5749209612513733,-16.164781590078068,-35.190586470435434,-2.5749209612513733,-12.15934898368704,-0.4235918899618095
519,0.3282499313354492,0.4291534935418956,7.867814048268086,-0.5722046580558607,-2.5749209612513733,-16.164781590078068,-35.190586470435434,-2.5749209612513733,-12.302400148201006,-0.42138991396180375
520,0.3287499248981476,0.4291534935418956,7.867814048268086,-0.5722046580558607,-2.5749209612513733,-16.164781590078068,-35.190586470435434,-2.5749209612513733,-12.302400148201006,-0.41918793796179804
521,0.32924991846084595,0.5722046580558607,7.867814048268086,-0.5722046580558607,-2.4318697967374083,-16.164781590078068,-35.190586470435434,-2.5749209612513733,-12.302400148201006,-0.41698596196179233
522,0.3297499418258667,0.4291534935418956,8.01086521278205,-0.5722046580558607,-2.5749209612513733,-16.164781590078068,-35.190586470435434,-2.5749209612513733,-12.302400148201006,-0.41478385471209955
523,0.33024993538856506,0.4291534935418956,8.01086521278205,-0.5722046580558607,-2.4318697967374083,-16.164781590078068,-35.333637634949405,-2.5749209612513733,-12.302400148201006,-0.4125074522683128
524,0.3307499289512634,0.4291534935418956,7.867814048268086,-0.5722046580558607,-2.5749209612513733,-16.0217304255641,-35.190586470435434,-2.5749209612513733,-12.302400148201006,-0.41023104982452613
525,0.3312499225139618,0.4291534935418956,7.867814048268086,-0.5722046580558607,-2.5749209612513733,-16.164781590078068,-35.190586470435434,-2.5749209612513733,-12.302400148201006,-0.4079546473807394
526,0.33174994587898254,0.4291534935418956,7.867814048268086,-0.5722046580558607,-2.5749209612513733,-16.164781590078068,-35.190586470435434,-2.5749209612513733,-12.302400148201006,-0.40567810925104675
527,0.3322499394416809,0.4291534935418956,7.867814048268086,-0.5722046580558607,-2.5749209612513733,-16.164781590078068,-35.190586470435434,-2.5749209612513733,-12.302400148201006,-0.40340170680726
528,0.3327499330043793,0.4291534935418956,7.867814048268086,-0.5722046580558607,-2.5749209612513733,-16.164781590078068,-35.190586470435434,-2.7179721257653386,-12.302400148201006,-0.40112530436347327
529,0.33324992656707764,0.4291534935418956,7.867814048268086,-0.5722046580558607,-2.5749209612513733,-16.164781590078068,-35.190586470435434,-2.7179721257653386,-12.302400148201006,-0.3988489019196866
530,0.333749920129776,0.4291534935418956,7.867814048268086,-0.5722046580558607,-2.4318697967374083,-16.164781590078068,-35.190586470435434,-2.7179721257653386,-12.302400148201006,-0.39657249947589984
531,0.33424994349479675,0.4291534935418956,7.867814048268086,-0.4291534935418956,-2.4318697967374083,-16.164781590078068,-35.190586470435434,-2.5749209612513733,-12.302400148201006,-0.3942959613462072
532,0.3347499370574951,0.28610232902793037,8.01086521278205,-0.5722046580558607,-2.5749209612513733,-16.164781590078068,-35.190586470435434,-2.5749209612513733,-12.302400148201006,-0.39201955890242046
533,0.3352499306201935,0.28610232902793037,8.153916377296015,-0.5722046580558607,-2.4318697967374083,-16.164781590078068,-35.190586470435434,-2.5749209612513733,-12.302400148201006,-0.3897431564586338
534,0.33574992418289185,0.14305116451396518,8.153916377296015,-0.4291534935418956,-2.5749209612513733,-16.164781590078068,-35.333637634949405,-2.5749209612513733,-12.302400148201006,-0.38746675401484704
535,0.3362499177455902,0.14305116451396518,8.153916377296015,-0.5722046580558607,-2.4318697967374083,-16.164781590078068,-35.190586470435434,-2.5749209612513733,-12.302400148201006,-0.3851903515710603
536,0.33674994111061096,0.28610232902793037,8.153916377296015,-0.4291534935418956,-2.4318697967374083,-16.164781590078068,-35.333637634949405,-2.5749209612513733,-12.302400148201006,-0.38291381344136766
537,0.3372499346733093,0.28610232902793037,8.01086521278205,-0.5722046580558607,-2.4318697967374083,-16.30783275459203,-35.190586470435434,-2.5749209612513733,-12.302400148201006,-0.38063741099758097
538,0.3377499282360077,0.28610232902793037,8.01086521278205,-0.5722046580558607,-2.4318697967374083,-16.30783275459203,-35.190586470435434,-2.5749209612513733,-12.302400148201006,-0.37836100855379423
539,0.33824992179870605,0.28610232902793037,8.01086521278205,-0.5722046580558607,-2.4318697967374083,-16.164781590078068,-35.190586470435434,-2.5749209612513733,-12.302400148201006,-0.3760846061100075
540,0.3387499451637268,0.28610232902793037,8.153916377296015,-0.5722046580558607,-2.4318697967374083,-16.164781590078068,-35.190586470435434,-2.5749209612513733,-12.302400148201006,-0.37380806798031485
541,0.33924993872642517,0.28610232902793037,8.153916377296015,-0.5722046580558607,-2.4318697967374083,-16.164781590078068,-35.190586470435434,-2.5749209612513733,-12.302400148201006,-0.3715316655365281
542,0.33974993228912354,0.28610232902793037,8.153916377296015,-0.5722046580558607,-2.4318697967374083,-16.164781590078068,-35.190586470435434,-2.5749209612513733,-12.445451312714972,-0.3692062143723451
543,0.3402499258518219,0.28610232902793037,8.153916377296015,-0.5722046580558607,-2.4318697967374083,-16.164781590078068,-35.190586470435434,-2.5749209612513733,-12.445451312714972,-0.36684806243699375
544,0.34074991941452026,0.28610232902793037,8.01086521278205,-0.5722046580558607,-2.4318697967374083,-16.164781590078068,-35.190586470435434,-2.5749209612513733,-12.445451312714972,-0.36448991050164237
545,0.341249942779541,0.4291534935418956,8.153916377296015,-0.5722046580558607,-2.4318697967374083,-16.164781590078068,-35.190586470435434,-2.5749209612513733,-12.445451312714972,-0.36213161800767296
546,0.3417499363422394,0.28610232902793037,8.01086521278205,-0.5722046580558607,-2.4318697967374083,-16.164781590078068,-35.190586470435434,-2.5749209612513733,-12.445451312714972,-0.35977346607232163
547,0.34224992990493774,0.4291534935418956,8.01086521278205,-0.5722046580558607,-2.4318697967374083,-16.164781590078068,-35.190586470435434,-2.5749209612513733,-12.445451312714972,-0.3574153141369703
548,0.3427499234676361,0.4291534935418956,7.867814048268086,-0.5722046580558607,-2.4318697967374083,-16.164781590078068,-35.190586470435434,-2.5749209612513733,-12.445451312714972,-0.355057162201619
549,0.34324994683265686,0.4291534935418956,7.867814048268086,-0.5722046580558607,-2.4318697967374083,-16.164781590078068,-35.190586470435434,-2.5749209612513733,-12.445451312714972,-0.3526988697076496
550,0.3437499403953552,0.28610232902793037,7.867814048268086,-0.5722046580558607,-2.4318697967374083,-16.164781590078068,-35.190586470435434,-2.5749209612513733,-12.445451312714972,-0.3503407177722982
551,0.3442499339580536,0.28610232902793037,7.867814048268086,-0.5722046580558607,-2.4318697967374083,-16.164781590078068,-35.190586470435434,-2.5749209612513733,-12.445451312714972,-0.34798256583694687
552,0.34474992752075195,0.28610232902793037,8.01086521278205,-0.5722046580558607,-2.4318697967374083,-16.164781590078068,-35.190586470435434,-2.5749209612513733,-12.445451312714972,-0.34562441390159554
553,0.3452499210834503,0.28610232902793037,8.01086521278205,-0.5722046580558607,-2.4318697967374083,-16.164781590078068,-35.190586470435434,-2.5749209612513733,-12.445451312714972,-0.3432662619662442
554,0.34574994444847107,0.28610232902793037,8.01086521278205,-0.5722046580558607,-2.4318697967374083,-16.164781590078068,-35.190586470435434,-2.5749209612513733,-12.445451312714972,-0.3409079694722748
555,0.34624993801116943,0.28610232902793037,8.01086521278205,-0.5722046580558607,-2.4318697967374083,-16.164781590078068,-35.190586470435434,-2.5749209612513733,-12.445451312714972,-0.3385498175369234
556,0.3467499315738678,0.28610232902793037,8.01086521278205,-0.5722046580558607,-2.4318697967374083,-16.164781590078068,-35.190586470435434,-2.5749209612513733,-12.302400148201006,-0.3361916656015721
557,0.34724992513656616,0.14305116451396518,8.01086521278205,-0.4291534935418956,-2.4318697967374083,-16.30783275459203,-35.190586470435434,-2.4318697967374083,-12.302400148201006,-0.33383351366622077
558,0.3477499186992645,0.0,8.153916377296015,-0.5722046580558607,-2.288818632223443,-16.30783275459203,-35.190586470435434,-2.5749209612513733,-12.302400148201006,-0.33147536173086944
559,0.3482499420642853,0.0,8.29696754180998,-0.5722046580558607,-2.288818632223443,-16.30783275459203,-35.04753530592147,-2.5749209612513733,-12.302400148201006,-0.32911706923690004
560,0.34874993562698364,-0.14305116451396518,8.29696754180998,-0.5722046580558607,-2.288818632223443,-16.164781590078068,-35.190586470435434,-2.5749209612513733,-12.445451312714972,-0.32675891730154866
561,0.349249929189682,0.0,8.29696754180998,-0.5722046580558607,-2.288818632223443,-16.164781590078068,-35.190586470435434,-2.5749209612513733,-12.302400148201006,-0.32440076536619733
562,0.34974992275238037,0.0,8.29696754180998,-0.5722046580558607,-2.4318697967374083,-16.30783275459203,-35.190586470435434,-2.5749209612513733,-12.302400148201006,-0.322042613430846
563,0.3502499461174011,0.0,8.29696754180998,-0.5722046580558607,-2.288818632223443,-16.164781590078068,-35.190586470435434,-2.5749209612513733,-12.302400148201006,-0.31962463250612755
564,0.3507499396800995,0.0,8.29696754180998,-0.5722046580558607,-2.288818632223443,-16.30783275459203,-35.190586470435434,-2.5749209612513733,-12.302400148201006,-0.31720679569756866
565,0.35124993324279785,0.0,8.29696754180998,-0.5722046580558607,-2.288818632223443,-16.30783275459203,-35.04753530592147,-2.5749209612513733,-12.445451312714972,-0.3147889588890097
566,0.3517499268054962,0.0,8.29696754180998,-0.5722046580558607,-2.288818632223443,-16.164781590078068,-35.190586470435434,-2.5749209612513733,-12.302400148201006,-0.3123711220804508
567,0.3522499203681946,0.0,8.29696754180998,-0.5722046580558607,-2.288818632223443,-16.30783275459203,-35.190586470435434,-2.5749209612513733,-12.445451312714972,-0.3099532852718919
568,0.35274994373321533,0.14305116451396518,8.153916377296015,-0.5722046580558607,-2.288818632223443,-16.164781590078068,-35.190586470435434,-2.5749209612513733,-12.445451312714972,-0.30753530434717347
569,0.3532499372959137,0.0,8.29696754180998,-0.5722046580558607,-2.288818632223443,-16.30783275459203,-35.04753530592147,-2.5749209612513733,-12.302400148201006,-0.3051174675386145
570,0.35374993085861206,0.14305116451396518,8.29696754180998,-0.5722046580558607,-2.288818632223443,-16.30783275459203,-35.190586470435434,-2.5749209612513733,-12.302400148201006,-0.3026996307300556
571,0.3542499244213104,0.14305116451396518,8.29696754180998,-0.5722046580558607,-2.288818632223443,-16.30783275459203,-35.04753530592147,-2.4318697967374083,-12.302400148201006,-0.30028179392149673
572,0.3547499179840088,0.14305116451396518,8.29696754180998,-0.5722046580558607,-2.288818632223443,-16.30783275459203,-35.04753530592147,-2.5749209612513733,-12.302400148201006,-0.2978639571129378
573,0.35524994134902954,0.14305116451396518,8.440018706323947,-0.5722046580558607,-2.288818632223443,-16.164781590078068,-35.04753530592147,-2.4318697967374083,-12.302400148201006,-0.29544597618821933
574,0.3557499349117279,0.14305116451396518,8.29696754180998,-0.5722046580558607,-2.288818632223443,-16.30783275459203,-35.190586470435434,-2.5749209612513733,-12.302400148201006,-0.29302813937966044
575,0.35624992847442627,0.0,8.29696754180998,-0.5722046580558607,-2.288818632223443,-16.164781590078068,-35.04753530592147,-2.5749209612513733,-12.302400148201006,-0.29061030257110154
576,0.35674992203712463,0.14305116451396518,8.153916377296015,-0.5722046580558607,-2.288818632223443,-16.30783275459203,-35.190586470435434,-2.5749209612513733,-12.302400148201006,-0.2881924657625426
577,0.3572499454021454,0.14305116451396518,8.153916377296015,-0.5722046580558607,-2.288818632223443,-16.30783275459203,-35.04753530592147,-2.5749209612513733,-12.302400148201006,-0.28577448483782414
578,0.35774993896484375,0.14305116451396518,8.153916377296015,-0.5722046580558607,-2.288818632223443,-16.30783275459203,-35.04753530592147,-2.5749209612513733,-12.15934898368704,-0.28335664802926525
579,0.3582499325275421,0.0,8.29696754180998,-0.5722046580558607,-2.288818632223443,-16.30783275459203,-35.04753530592147,-2.5749209612513733,-12.302400148201006,-0.28093881122070635
580,0.3587499260902405,0.0,8.440018706323947,-0.5722046580558607,-2.288818632223443,-16.164781590078068,-35.04753530592147,-2.5749209612513733,-12.445451312714972,-0.2785209744121474
581,0.35924991965293884,0.0,8.440018706323947,-0.5722046580558607,-2.288818632223443,-16.30783275459203,-35.04753530592147,-2.5749209612513733,-12.445451312714972,-0.2761031376035885
582,0.3597499430179596,0.0,8.29696754180998,-0.5722046580558607,-2.288818632223443,-16.30783275459203,-35.04753530592147,-2.5749209612513733,-12.302400148201006,-0.27368515667887006
583,0.36024993658065796,0.14305116451396518,8.29696754180998,-0.5722046580558607,-2.288818632223443,-16.30783275459203,-35.04753530592147,-2.5749209612513733,-12.445451312714972,-0.2711698426705262
584,0.3607499301433563,0.0,8.153916377296015,-0.5722046580558607,-2.288818632223443,-16.30783275459203,-35.04753530592147,-2.5749209612513733,-12.445451312714972,-0.26865452866218237
585,0.3612499237060547,0.0,8.29696754180998,-0.5722046580558607,-2.288818632223443,-16.30783275459203,-35.04753530592147,-2.5749209612513733,-12.445451312714972,-0.2661392146538385
586,0.36174991726875305,0.14305116451396518,8.29696754180998,-0.5722046580558607,-2.288818632223443,-16.450883919105998,-35.04753530592147,-2.5749209612513733,-12.302400148201006,-0.2636239006454947
587,0.3622499406337738,0.14305116451396518,8.153916377296015,-0.5722046580558607,-2.288818632223443,-16.450883919105998,-35.04753530592147,-2.5749209612513733,-12.445451312714972,-0.26110843671082257
588,0.36274993419647217,0.14305116451396518,8.01086521278205,-0.5722046580558607,-2.288818632223443,-16.450883919105998,-35.04753530592147,-2.5749209612513733,-12.445451312714972,-0.25859312270247875
589,0.36324992775917053,0.0,8.01086521278205,-0.5722046580558607,-2.288818632223443,-16.450883919105998,-35.04753530592147,-2.4318697967374083,-12.302400148201006,-0.2560778086941349
590,0.3637499213218689,-0.14305116451396518,8.153916377296015,-0.5722046580558607,-2.288818632223443,-16.59393508361996,-35.04753530592147,-2.5749209612513733,-12.302400148201006,-0.25356249468579106
591,0.36424994468688965,-0.14305116451396518,8.153916377296015,-0.5722046580558607,-2.288818632223443,-16.59393508361996,-35.04753530592147,-2.5749209612513733,-12.302400148201006,-0.251047030751119
592,0.364749938249588,-0.28610232902793037,8.29696754180998,-0.5722046580558607,-2.288818632223443,-16.736986248133928,-35.04753530592147,-2.5749209612513733,-12.302400148201006,-0.24853171674277513
593,0.3652499318122864,-0.28610232902793037,8.29696754180998,-0.715255822569826,-2.145767467709478,-16.736986248133928,-35.04753530592147,-2.5749209612513733,-12.302400148201006,-0.2460164027344313
594,0.36574992537498474,-0.28610232902793037,8.29696754180998,-0.5722046580558607,-2.145767467709478,-16.736986248133928,-35.04753530592147,-2.5749209612513733,-12.302400148201006,-0.24350108872608742
595,0.3662499189376831,-0.28610232902793037,8.29696754180998,-0.5722046580558607,-2.145767467709478,-16.736986248133928,-35.04753530592147,-2.5749209612513733,-12.302400148201006,-0.24098577471774357
596,0.36674994230270386,-0.28610232902793037,8.440018706323947,-0.5722046580558607,-2.288818632223443,-16.880037412647894,-35.04753530592147,-2.5749209612513733,-12.302400148201006,-0.23847031078307152
597,0.3672499358654022,-0.4291534935418956,8.440018706323947,-0.5722046580558607,-2.145767467709478,-16.880037412647894,-35.04753530592147,-2.5749209612513733,-12.15934898368704,-0.23595499677472767
598,0.3677499294281006,-0.28610232902793037,8.440018706323947,-0.5722046580558607,-2.145767467709478,-16.880037412647894,-35.04753530592147,-2.5749209612513733,-12.302400148201006,-0.23343968276638383
599,0.36824992299079895,-0.28610232902793037,8.29696754180998,-0.5722046580558607,-2.145767467709478,-17.023088577161857,-35.04753530592147,-2.5749209612513733,-12.302400148201006,-0.23092436875803996
600,0.3687499463558197,-0.28610232902793037,8.440018706323947,-0.5722046580558607,-2.145767467709478,-16.880037412647894,-35.04753530592147,-2.5749209612513733,-12.302400148201006,-0.2284089048233679
601,0.36924993991851807,-0.28610232902793037,8.440018706323947,-0.5722046580558607,-2.145767467709478,-16.880037412647894,-35.04753530592147,-2.5749209612513733,-12.15934898368704,-0.22589359081502405
602,0.36974993348121643,-0.28610232902793037,8.29696754180998,-0.4291534935418956,-2.288818632223443,-16.880037412647894,-35.04753530592147,-2.5749209612513733,-12.15934898368704,-0.2233782768066802
603,0.3702499270439148,-0.28610232902793037,8.29696754180998,-0.5722046580558607,-2.288818632223443,-17.023088577161857,-35.04753530592147,-2.5749209612513733,-12.15934898368704,-0.22085541350182633
604,0.37074992060661316,-0.28610232902793037,8.440018706323947,-0.5722046580558607,-2.288818632223443,-17.023088577161857,-35.04753530592147,-2.4318697967374083,-12.15934898368704,-0.21833066315407337
605,0.3712499439716339,-0.28610232902793037,8.29696754180998,-0.5722046580558607,-2.145767467709478,-17.023088577161857,-35.04753530592147,-2.5749209612513733,-12.302400148201006,-0.21580576231753534
606,0.3717499375343323,-0.28610232902793037,8.29696754180998,-0.5722046580558607,-2.288818632223443,-17.166139741675824,-35.04753530592147,-2.5749209612513733,-12.15934898368704,-0.2132810119697824
607,0.37224993109703064,-0.28610232902793037,8.29696754180998,-0.5722046580558607,-2.288818632223443,-17.023088577161857,-35.04753530592147,-2.5749209612513733,-12.302400148201006,-0.21075626162202946
