,Time,rhl,rhm,rvl,rrf,rgl,rgm,rta,ShankSagittal
0,0.06580016016960144,7.152558225698259,-9.012223364379807,48.0651912766923,-39.052967912312496,-60.08148909586538,33.90312598980975,-3.4332279483351646,0.06284911726007372
1,0.0663001611828804,7.152558225698259,-9.012223364379807,48.20824244120627,-39.052967912312496,-60.08148909586538,33.90312598980975,-3.4332279483351646,0.06266576906928525
2,0.06680015474557877,7.295609390212225,-9.012223364379807,48.20824244120627,-39.052967912312496,-60.22454026037934,34.046177154323715,-3.4332279483351646,0.062482423610592204
3,0.06730015575885773,7.295609390212225,-8.869172199865842,48.35129360572024,-39.052967912312496,-60.36759142489331,34.046177154323715,-3.4332279483351646,0.06229907541980374
4,0.06780015677213669,7.295609390212225,-8.869172199865842,48.4943447702342,-39.052967912312496,-60.510642589407276,34.046177154323715,-3.4332279483351646,0.06211572722901528
5,0.06830015778541565,7.295609390212225,-8.869172199865842,48.4943447702342,-39.052967912312496,-60.36759142489331,34.046177154323715,-3.5762791128491296,0.06193237903822682
6,0.06880015879869461,7.295609390212225,-8.869172199865842,48.63739593474816,-39.052967912312496,-60.36759142489331,34.046177154323715,-3.4332279483351646,0.06174903084743836
7,0.06930015981197357,7.295609390212225,-8.869172199865842,48.63739593474816,-39.052967912312496,-60.22454026037934,34.18922831883768,-3.5762791128491296,0.0615656826566499
8,0.06980016082525253,7.295609390212225,-8.869172199865842,48.78044709926213,-39.052967912312496,-60.22454026037934,34.33227948335165,-3.5762791128491296,0.061382334465861436
9,0.0703001543879509,7.295609390212225,-8.869172199865842,48.78044709926213,-39.052967912312496,-60.36759142489331,34.33227948335165,-3.5762791128491296,0.061198989007168386
10,0.07080015540122986,7.295609390212225,-8.726121035351877,48.78044709926213,-39.052967912312496,-60.36759142489331,34.47533064786561,-3.5762791128491296,0.061015640816379925
11,0.07130015641450882,7.295609390212225,-8.726121035351877,48.78044709926213,-39.19601907682646,-60.510642589407276,34.33227948335165,-3.719330277363095,0.060832292625591464
12,0.07180015742778778,7.295609390212225,-8.726121035351877,48.78044709926213,-39.19601907682646,-60.510642589407276,34.18922831883768,-3.5762791128491296,0.060648944434803
13,0.07230015844106674,7.295609390212225,-8.726121035351877,48.63739593474816,-39.19601907682646,-60.65369375392124,34.18922831883768,-3.719330277363095,0.06046559624401454
14,0.0728001594543457,7.43866055472619,-8.726121035351877,48.78044709926213,-39.052967912312496,-60.510642589407276,34.18922831883768,-3.719330277363095,0.06028224805322608
15,0.07330016046762466,7.43866055472619,-8.726121035351877,48.78044709926213,-39.19601907682646,-60.65369375392124,34.18922831883768,-3.719330277363095,0.06009889986243762
16,0.07380015403032303,7.43866055472619,-8.726121035351877,48.78044709926213,-39.052967912312496,-60.65369375392124,34.046177154323715,-3.5762791128491296,0.05991555440374457
17,0.07430015504360199,7.43866055472619,-8.726121035351877,48.78044709926213,-39.19601907682646,-60.65369375392124,34.046177154323715,-3.719330277363095,0.05972475472348164
18,0.07480015605688095,7.43866055472619,-8.726121035351877,48.9234982637761,-39.19601907682646,-60.510642589407276,34.046177154323715,-3.8623814418770603,0.059532092136151335
19,0.07530015707015991,7.43866055472619,-8.583069870837912,48.9234982637761,-39.19601907682646,-60.65369375392124,34.046177154323715,-3.8623814418770603,0.05933942954882103
20,0.07580015808343887,7.43866055472619,-8.583069870837912,48.9234982637761,-39.19601907682646,-60.79674491843521,34.33227948335165,-3.8623814418770603,0.059146766961490724
21,0.07630015909671783,7.43866055472619,-8.726121035351877,48.78044709926213,-39.19601907682646,-60.93979608294917,34.33227948335165,-4.005432606391025,0.05895410437416042
22,0.0768001601099968,7.581711719240155,-8.583069870837912,48.78044709926213,-39.19601907682646,-61.082847247463135,34.33227948335165,-4.005432606391025,0.05876144178683011
23,0.07730016112327576,7.581711719240155,-8.583069870837912,48.63739593474816,-39.19601907682646,-61.082847247463135,34.18922831883768,-4.005432606391025,0.05856877919949981
24,0.07780015468597412,7.581711719240155,-8.583069870837912,48.63739593474816,-39.19601907682646,-61.2258984119771,34.18922831883768,-4.14848377090499,0.05837611948305996
25,0.07830015569925308,7.581711719240155,-8.583069870837912,48.63739593474816,-39.19601907682646,-61.2258984119771,34.33227948335165,-4.005432606391025,0.05818345689572965
26,0.07880015671253204,7.724762883754121,-8.583069870837912,48.78044709926213,-39.19601907682646,-61.2258984119771,34.33227948335165,-4.14848377090499,0.057990794308399346
27,0.079300157725811,7.581711719240155,-8.583069870837912,48.78044709926213,-39.19601907682646,-61.36894957649107,34.33227948335165,-4.14848377090499,0.05779813172106904
28,0.07980015873908997,7.581711719240155,-8.583069870837912,48.78044709926213,-39.19601907682646,-61.36894957649107,34.47533064786561,-4.14848377090499,0.057605469133738735
29,0.08030015975236893,7.581711719240155,-8.583069870837912,48.9234982637761,-39.19601907682646,-61.36894957649107,34.33227948335165,-4.14848377090499,0.05741280654640843
30,0.08080016076564789,7.724762883754121,-8.440018706323947,48.9234982637761,-39.19601907682646,-61.36894957649107,34.47533064786561,-4.291534935418956,0.057220143959078124
31,0.08130015432834625,7.724762883754121,-8.440018706323947,49.06654942829006,-39.19601907682646,-61.36894957649107,34.33227948335165,-4.291534935418956,0.05702748424263827
32,0.08180015534162521,7.724762883754121,-8.440018706323947,49.20960059280402,-39.19601907682646,-61.36894957649107,34.47533064786561,-4.291534935418956,0.05683482165530796
33,0.08230015635490417,7.724762883754121,-8.440018706323947,49.35265175731799,-39.19601907682646,-61.36894957649107,34.47533064786561,-4.434586099932921,0.056642159067977656
34,0.08280015736818314,7.724762883754121,-8.440018706323947,49.35265175731799,-39.19601907682646,-61.36894957649107,34.47533064786561,-4.434586099932921,0.05644949648064735
35,0.0833001583814621,7.724762883754121,-8.440018706323947,49.35265175731799,-39.19601907682646,-61.36894957649107,34.47533064786561,-4.434586099932921,0.056256833893317044
36,0.08380015939474106,7.724762883754121,-8.440018706323947,49.35265175731799,-39.19601907682646,-61.36894957649107,34.33227948335165,-4.577637264446886,0.05606417130598674
37,0.08430016040802002,7.724762883754121,-8.29696754180998,49.495702921831956,-39.19601907682646,-61.36894957649107,34.33227948335165,-4.720688428960852,0.055847750239735226
38,0.08480015397071838,7.724762883754121,-8.440018706323947,49.63875408634592,-39.19601907682646,-61.2258984119771,34.33227948335165,-4.720688428960852,0.05562539275654654
39,0.08530015498399734,7.724762883754121,-8.29696754180998,49.63875408634592,-39.19601907682646,-61.2258984119771,34.18922831883768,-4.720688428960852,0.0554030319599305
40,0.0858001559972763,7.724762883754121,-8.29696754180998,49.63875408634592,-39.19601907682646,-61.36894957649107,34.18922831883768,-4.863739593474817,0.05518067116331445
41,0.08630015701055527,7.724762883754121,-8.29696754180998,49.495702921831956,-39.33907024134043,-61.36894957649107,34.18922831883768,-4.863739593474817,0.05495831036669841
42,0.08680015802383423,7.867814048268086,-8.29696754180998,49.495702921831956,-39.33907024134043,-61.655051905518995,34.33227948335165,-5.006790757988782,0.05473594957008237
43,0.08730015903711319,7.867814048268086,-8.29696754180998,49.495702921831956,-39.33907024134043,-61.798103070032965,34.33227948335165,-5.1498419225027465,0.05451358877346633
44,0.08780016005039215,7.867814048268086,-8.29696754180998,49.495702921831956,-39.33907024134043,-61.94115423454693,34.18922831883768,-5.1498419225027465,0.054291227976850286
45,0.08830016106367111,7.867814048268086,-8.29696754180998,49.35265175731799,-39.33907024134043,-61.94115423454693,34.33227948335165,-5.1498419225027465,0.054068867180234244
46,0.08880015462636948,7.867814048268086,-8.29696754180998,49.20960059280402,-39.33907024134043,-61.94115423454693,34.47533064786561,-5.292893087016712,0.05384650969704556
47,0.08930015563964844,7.867814048268086,-8.29696754180998,49.20960059280402,-39.33907024134043,-61.94115423454693,34.761432976893545,-5.292893087016712,0.05362414890042951
48,0.0898001566529274,7.867814048268086,-8.29696754180998,49.20960059280402,-39.33907024134043,-61.94115423454693,34.761432976893545,-5.292893087016712,0.05340178810381347
49,0.09030015766620636,7.867814048268086,-8.29696754180998,49.20960059280402,-39.33907024134043,-61.94115423454693,34.618381812379575,-5.435944251530677,0.05317942730719743
50,0.09080015867948532,7.867814048268086,-8.29696754180998,49.06654942829006,-39.33907024134043,-61.94115423454693,34.47533064786561,-5.435944251530677,0.05295706651058139
51,0.09130015969276428,7.867814048268086,-8.153916377296015,48.9234982637761,-39.33907024134043,-62.08420539906089,34.18922831883768,-5.578995416044642,0.052734705713965345
52,0.09190015494823456,7.867814048268086,-8.29696754180998,48.9234982637761,-39.33907024134043,-62.08420539906089,34.046177154323715,-5.578995416044642,0.05246787540876798
53,0.09240015596151352,7.867814048268086,-8.29696754180998,48.78044709926213,-39.48212140585439,-62.227256563574855,34.046177154323715,-5.578995416044642,0.05224551461215193
54,0.09290015697479248,8.01086521278205,-8.153916377296015,48.63739593474816,-39.33907024134043,-62.227256563574855,34.046177154323715,-5.578995416044642,0.05202315381553589
55,0.09340015798807144,8.01086521278205,-8.153916377296015,48.4943447702342,-39.33907024134043,-62.370307728088825,34.18922831883768,-5.578995416044642,0.05180079301891985
56,0.0939001590013504,8.01086521278205,-8.153916377296015,48.4943447702342,-39.33907024134043,-62.370307728088825,34.18922831883768,-5.578995416044642,0.05157843222230381
57,0.09440016001462936,8.01086521278205,-8.153916377296015,48.4943447702342,-39.33907024134043,-62.51335889260279,34.18922831883768,-5.722046580558608,0.05135097404023721
58,0.09490016102790833,8.01086521278205,-8.153916377296015,48.4943447702342,-39.48212140585439,-62.370307728088825,34.18922831883768,-5.578995416044642,0.05112351585817061
59,0.09540015459060669,8.01086521278205,-8.153916377296015,48.4943447702342,-39.33907024134043,-62.370307728088825,34.046177154323715,-5.578995416044642,0.050896061065488184
60,0.09590015560388565,8.01086521278205,-8.01086521278205,48.35129360572024,-39.48212140585439,-62.65641005711675,34.046177154323715,-5.578995416044642,0.050668602883421586
61,0.09640015661716461,8.153916377296015,-8.01086521278205,48.20824244120627,-39.48212140585439,-62.79946122163072,34.046177154323715,-5.578995416044642,0.05044114470135499
62,0.09690015763044357,8.01086521278205,-8.01086521278205,48.0651912766923,-39.48212140585439,-62.942512386144685,33.90312598980975,-5.722046580558608,0.05021368651928839
63,0.09740015864372253,8.153916377296015,-8.01086521278205,48.0651912766923,-39.48212140585439,-63.08556355065865,34.046177154323715,-5.865097745072573,0.04998622833722179
64,0.0979001596570015,8.153916377296015,-8.01086521278205,48.0651912766923,-39.48212140585439,-63.22861471517261,34.33227948335165,-6.008148909586538,0.049758770155155195
65,0.09840016067028046,8.153916377296015,-8.01086521278205,48.0651912766923,-39.48212140585439,-63.22861471517261,34.18922831883768,-6.151200074100503,0.0495313119730886
66,0.09890015423297882,8.153916377296015,-8.01086521278205,48.0651912766923,-39.48212140585439,-63.22861471517261,33.76007482529579,-6.294251238614469,0.04930385718040617
67,0.09940015524625778,8.153916377296015,-8.01086521278205,47.92214011217834,-39.48212140585439,-63.22861471517261,33.33092133175389,-6.294251238614469,0.04907639899833957
68,0.09990015625953674,8.153916377296015,-8.01086521278205,47.77908894766438,-39.48212140585439,-63.22861471517261,33.18787016723992,-6.151200074100503,0.04884894081627297
69,0.1004001572728157,8.153916377296015,-7.867814048268086,47.77908894766438,-39.625172570368356,-63.22861471517261,33.33092133175389,-6.151200074100503,0.048621482634206376
70,0.10090015828609467,8.153916377296015,-8.01086521278205,47.63603778315041,-39.48212140585439,-63.37166587968658,33.33092133175389,-6.008148909586538,0.04839402445213978
71,0.10140015929937363,8.153916377296015,-7.867814048268086,47.63603778315041,-39.48212140585439,-63.37166587968658,33.33092133175389,-6.151200074100503,0.04816656627007318
72,0.10190016031265259,8.153916377296015,-7.867814048268086,47.49298661863644,-39.48212140585439,-63.37166587968658,33.473972496267855,-6.151200074100503,0.04793910808800658
73,0.10240015387535095,8.153916377296015,-7.867814048268086,47.49298661863644,-39.48212140585439,-63.37166587968658,33.76007482529579,-6.151200074100503,0.04771165329532415
74,0.10290015488862991,8.153916377296015,-7.867814048268086,47.34993545412248,-39.48212140585439,-63.514717044200545,34.18922831883768,-6.294251238614469,0.04748419511325755
75,0.10340015590190887,8.153916377296015,-7.867814048268086,47.20688428960851,-39.48212140585439,-63.65776820871451,34.47533064786561,-6.294251238614469,0.04725673693119095
76,0.10390015691518784,8.29696754180998,-7.867814048268086,47.06383312509455,-39.48212140585439,-63.65776820871451,34.33227948335165,-6.294251238614469,0.047029278749124354
77,0.1044001579284668,8.29696754180998,-7.724762883754121,46.920781960580584,-39.48212140585439,-63.94387053774244,34.18922831883768,-6.294251238614469,0.04678227308696206
78,0.10490015894174576,8.29696754180998,-7.867814048268086,46.920781960580584,-39.625172570368356,-63.65776820871451,33.90312598980975,-6.437302403128434,0.046530380463750645
79,0.10540015995502472,8.29696754180998,-7.724762883754121,46.920781960580584,-39.48212140585439,-63.514717044200545,33.76007482529579,-6.294251238614469,0.04627848784053922
80,0.10590016096830368,8.29696754180998,-7.724762883754121,46.920781960580584,-39.625172570368356,-63.65776820871451,33.61702366078182,-6.437302403128434,0.046026595217327805
81,0.10640015453100204,8.29696754180998,-7.867814048268086,46.63467963155265,-39.48212140585439,-63.94387053774244,33.76007482529579,-6.294251238614469,0.04577470634760136
82,0.106900155544281,8.29696754180998,-7.724762883754121,46.63467963155265,-39.48212140585439,-64.0869217022564,33.76007482529579,-6.437302403128434,0.04552281372438994
83,0.10740015655755997,8.29696754180998,-7.724762883754121,46.49162846703869,-39.625172570368356,-64.0869217022564,33.90312598980975,-6.437302403128434,0.04527092110117852
84,0.10790015757083893,8.29696754180998,-7.724762883754121,46.348577302524724,-39.48212140585439,-64.22997286677037,34.046177154323715,-6.437302403128434,0.045019028477967106
85,0.10840015858411789,8.29696754180998,-7.724762883754121,46.205526138010754,-39.625172570368356,-64.22997286677037,34.18922831883768,-6.437302403128434,0.04476713585475568
86,0.10890015959739685,8.440018706323947,-7.724762883754121,46.06247497349679,-39.48212140585439,-64.37302403128433,34.33227948335165,-6.437302403128434,0.044515243231544266
87,0.10940016061067581,8.29696754180998,-7.724762883754121,45.91942380898283,-39.48212140585439,-64.37302403128433,34.33227948335165,-6.437302403128434,0.04426335060833285
88,0.10990015417337418,8.440018706323947,-7.724762883754121,45.776372644468864,-39.48212140585439,-64.65912636031227,34.33227948335165,-6.437302403128434,0.0440114617386064
89,0.11040015518665314,8.29696754180998,-7.724762883754121,45.633321479954894,-39.48212140585439,-64.65912636031227,34.18922831883768,-6.5803535676423985,0.04375956911539498
90,0.1109001561999321,8.440018706323947,-7.724762883754121,45.49027031544093,-39.48212140585439,-64.80217752482623,34.18922831883768,-6.5803535676423985,0.04350767649218357
91,0.11140015721321106,8.440018706323947,-7.581711719240155,45.34721915092697,-39.48212140585439,-64.9452286893402,34.18922831883768,-6.723404732156364,0.04325578386897214
92,0.11190015822649002,8.440018706323947,-7.581711719240155,45.34721915092697,-39.625172570368356,-64.80217752482623,34.18922831883768,-6.723404732156364,0.04300389124576073
93,0.11240015923976898,8.440018706323947,-7.581711719240155,45.91942380898283,-39.48212140585439,-64.9452286893402,34.18922831883768,-6.723404732156364,0.04275199862254931
94,0.11290016025304794,8.440018706323947,-7.581711719240155,46.348577302524724,-39.48212140585439,-64.9452286893402,34.046177154323715,-6.866455896670329,0.04250010599933789
95,0.1134001612663269,8.583069870837912,-7.43866055472619,46.63467963155265,-39.48212140585439,-65.08827985385416,34.046177154323715,-6.866455896670329,0.04224821337612647
96,0.11390015482902527,8.583069870837912,-7.581711719240155,46.06247497349679,-39.48212140585439,-65.23133101836812,34.046177154323715,-6.866455896670329,0.041995638921105485
97,0.11440015584230423,8.583069870837912,-7.43866055472619,45.49027031544093,-39.48212140585439,-65.23133101836812,34.046177154323715,-6.866455896670329,0.04174031816708926
98,0.11490015685558319,8.583069870837912,-7.43866055472619,45.34721915092697,-39.48212140585439,-65.23133101836812,34.046177154323715,-6.866455896670329,0.04148499741307303
99,0.11540015786886215,8.583069870837912,-7.43866055472619,44.91806565738507,-39.48212140585439,-65.23133101836812,34.046177154323715,-6.866455896670329,0.0412296766590568
100,0.11590015888214111,8.726121035351877,-7.43866055472619,44.63196332835714,-39.48212140585439,-65.23133101836812,34.046177154323715,-6.866455896670329,0.040974355905040574
101,0.11640015989542007,8.726121035351877,-7.43866055472619,44.63196332835714,-39.48212140585439,-65.37438218288209,34.18922831883768,-6.866455896670329,0.040719035151024346
102,0.11690016090869904,8.726121035351877,-7.43866055472619,44.63196332835714,-39.48212140585439,-65.66048451191003,34.33227948335165,-6.866455896670329,0.04046371439700812
103,0.1174001544713974,8.726121035351877,-7.295609390212225,44.77501449287111,-39.48212140585439,-65.80353567642399,34.33227948335165,-6.866455896670329,0.0402083974475599
104,0.11790015548467636,8.726121035351877,-7.43866055472619,45.061116821899034,-39.625172570368356,-65.80353567642399,34.47533064786561,-7.009507061184294,0.03995307669354367
105,0.11840015649795532,8.726121035351877,-7.295609390212225,45.204167986413,-39.625172570368356,-65.66048451191003,34.33227948335165,-6.866455896670329,0.03969775593952744
106,0.11890015751123428,8.869172199865842,-7.295609390212225,45.204167986413,-39.48212140585439,-65.80353567642399,34.18922831883768,-7.009507061184294,0.039442435185511215
107,0.11940015852451324,8.726121035351877,-7.295609390212225,45.061116821899034,-39.48212140585439,-65.66048451191003,34.046177154323715,-7.009507061184294,0.03918711443149499
108,0.1199001595377922,8.869172199865842,-7.295609390212225,44.91806565738507,-39.625172570368356,-65.51743334739606,34.18922831883768,-7.009507061184294,0.03893179367747876
109,0.12040016055107117,8.869172199865842,-7.295609390212225,44.63196332835714,-39.625172570368356,-65.23133101836812,34.046177154323715,-7.009507061184294,0.03867647292346253
110,0.12090015411376953,8.869172199865842,-7.295609390212225,44.488912163843175,-39.625172570368356,-65.37438218288209,34.18922831883768,-7.009507061184294,0.03842115597401431
111,0.12140015512704849,8.869172199865842,-7.295609390212225,44.34586099932921,-39.625172570368356,-65.23133101836812,34.33227948335165,-7.009507061184294,0.038165835219998084
112,0.12190015614032745,8.869172199865842,-7.152558225698259,44.20280983481524,-39.48212140585439,-65.23133101836812,34.33227948335165,-7.009507061184294,0.03791051446598186
113,0.12240015715360641,8.869172199865842,-7.152558225698259,44.05975867030128,-39.625172570368356,-65.37438218288209,34.18922831883768,-7.152558225698259,0.03765519371196563
114,0.12290015816688538,8.869172199865842,-7.152558225698259,43.77365634127335,-39.625172570368356,-65.51743334739606,34.33227948335165,-7.152558225698259,0.0373998729579494
115,0.12340015918016434,9.012223364379807,-7.152558225698259,43.63060517675938,-39.625172570368356,-65.80353567642399,34.33227948335165,-7.152558225698259,0.03714455220393317
116,0.1239001601934433,9.012223364379807,-7.152558225698259,43.77365634127335,-39.625172570368356,-65.80353567642399,34.33227948335165,-7.152558225698259,0.036889231449916945
117,0.12440016120672226,9.012223364379807,-7.009507061184294,43.63060517675938,-39.48212140585439,-65.80353567642399,34.33227948335165,-7.295609390212225,0.03660761524825588
118,0.12490015476942062,9.012223364379807,-7.152558225698259,43.77365634127335,-39.48212140585439,-65.66048451191003,34.33227948335165,-7.295609390212225,0.03632600324299472
119,0.12540015578269958,9.012223364379807,-7.009507061184294,43.344502847731455,-39.48212140585439,-65.80353567642399,34.18922831883768,-7.295609390212225,0.03604438704133365
120,0.12590016424655914,9.012223364379807,-7.009507061184294,43.05840051870352,-39.48212140585439,-65.94658684093795,34.18922831883768,-7.295609390212225,0.035762766643272666
121,0.1264001578092575,9.012223364379807,-7.009507061184294,42.772298189675595,-39.48212140585439,-66.23268916996588,34.18922831883768,-7.295609390212225,0.035481154638011506
122,0.12690015137195587,9.155274528893772,-7.009507061184294,42.48619586064766,-39.48212140585439,-66.23268916996588,34.18922831883768,-7.295609390212225,0.035199542632750346
123,0.12740015983581543,9.155274528893772,-7.009507061184294,42.48619586064766,-39.48212140585439,-66.23268916996588,34.18922831883768,-7.295609390212225,0.03491792223468936
124,0.1279001533985138,9.155274528893772,-7.009507061184294,42.48619586064766,-39.48212140585439,-66.08963800545192,34.18922831883768,-7.295609390212225,0.0346363102294282
125,0.12840016186237335,9.155274528893772,-7.009507061184294,42.48619586064766,-39.48212140585439,-65.94658684093795,34.33227948335165,-7.43866055472619,0.034354689831367226
126,0.12890015542507172,9.155274528893772,-7.009507061184294,42.629247025161625,-39.48212140585439,-66.08963800545192,34.18922831883768,-7.295609390212225,0.034073077826106066
127,0.12940016388893127,9.155274528893772,-6.866455896670329,42.629247025161625,-39.48212140585439,-66.08963800545192,34.33227948335165,-7.43866055472619,0.03379145742804508
128,0.12990015745162964,9.155274528893772,-7.009507061184294,42.48619586064766,-39.48212140585439,-66.08963800545192,34.18922831883768,-7.43866055472619,0.03350984542278392
129,0.130400151014328,9.155274528893772,-7.009507061184294,42.629247025161625,-39.48212140585439,-66.08963800545192,34.18922831883768,-7.295609390212225,0.03322823341752276
130,0.13090015947818756,9.155274528893772,-6.866455896670329,42.629247025161625,-39.48212140585439,-66.23268916996588,34.33227948335165,-7.295609390212225,0.032946613019461786
131,0.13140015304088593,9.298325693407737,-6.866455896670329,42.629247025161625,-39.625172570368356,-66.08963800545192,34.18922831883768,-7.295609390212225,0.032665001014200626
132,0.13190016150474548,9.298325693407737,-6.866455896670329,42.48619586064766,-39.48212140585439,-66.08963800545192,34.33227948335165,-7.295609390212225,0.03238338061613964
133,0.13240015506744385,9.298325693407737,-6.866455896670329,42.48619586064766,-39.48212140585439,-66.08963800545192,34.33227948335165,-7.295609390212225,0.03210176861087848
134,0.1329001635313034,9.298325693407737,-6.866455896670329,42.48619586064766,-39.625172570368356,-66.08963800545192,34.33227948335165,-7.295609390212225,0.031820148212817506
135,0.13340015709400177,9.298325693407737,-6.866455896670329,42.3431446961337,-39.625172570368356,-66.08963800545192,34.33227948335165,-7.43866055472619,0.031538536207556346
136,0.13390015065670013,9.298325693407737,-6.866455896670329,42.20009353161973,-39.625172570368356,-66.08963800545192,34.33227948335165,-7.43866055472619,0.03125318744640182
137,0.1344001591205597,9.441376857921703,-6.723404732156364,42.20009353161973,-39.625172570368356,-66.08963800545192,34.33227948335165,-7.43866055472619,0.030952880484406135
138,0.13490015268325806,9.298325693407737,-6.723404732156364,42.48619586064766,-39.625172570368356,-65.94658684093795,34.33227948335165,-7.581711719240155,0.03065258247210385
139,0.13540016114711761,9.441376857921703,-6.723404732156364,42.629247025161625,-39.625172570368356,-65.94658684093795,34.18922831883768,-7.581711719240155,0.030352275510108166
140,0.13590015470981598,9.441376857921703,-6.723404732156364,42.48619586064766,-39.625172570368356,-65.94658684093795,34.18922831883768,-7.43866055472619,0.03005197749780588
141,0.13640016317367554,9.441376857921703,-6.723404732156364,42.3431446961337,-39.625172570368356,-66.08963800545192,34.046177154323715,-7.43866055472619,0.0297516705358102
142,0.1369001567363739,9.441376857921703,-6.723404732156364,42.20009353161973,-39.625172570368356,-66.08963800545192,34.18922831883768,-7.43866055472619,0.029451372523507914
143,0.13740015029907227,9.441376857921703,-6.723404732156364,42.057042367105765,-39.625172570368356,-66.08963800545192,34.33227948335165,-7.43866055472619,0.02915107451120563
144,0.13790015876293182,9.441376857921703,-6.5803535676423985,42.057042367105765,-39.48212140585439,-66.08963800545192,34.33227948335165,-7.43866055472619,0.028850767549209944
145,0.1384001523256302,9.441376857921703,-6.723404732156364,42.057042367105765,-39.625172570368356,-65.94658684093795,34.33227948335165,-7.43866055472619,0.02855046953690766
146,0.13890016078948975,9.441376857921703,-6.5803535676423985,42.057042367105765,-39.625172570368356,-65.94658684093795,34.47533064786561,-7.43866055472619,0.028250162574911974
147,0.1394001543521881,9.441376857921703,-6.5803535676423985,41.9139912025918,-39.625172570368356,-65.80353567642399,34.761432976893545,-7.581711719240155,0.02794986456260969
148,0.13990016281604767,9.584428022435668,-6.5803535676423985,41.9139912025918,-39.48212140585439,-65.94658684093795,35.04753530592147,-7.581711719240155,0.027649557600614005
149,0.14040015637874603,9.584428022435668,-6.5803535676423985,41.9139912025918,-39.48212140585439,-65.80353567642399,34.90448414140751,-7.581711719240155,0.02734925958831172
150,0.1409001648426056,9.584428022435668,-6.5803535676423985,41.62788887356387,-39.48212140585439,-65.66048451191003,34.618381812379575,-7.581711719240155,0.027048952626316035
151,0.14140015840530396,9.584428022435668,-6.5803535676423985,41.62788887356387,-39.48212140585439,-65.51743334739606,34.33227948335165,-7.581711719240155,0.026748654614013753
152,0.14190015196800232,9.584428022435668,-6.437302403128434,41.484837709049906,-39.48212140585439,-65.37438218288209,34.046177154323715,-7.581711719240155,0.026448356601711465
153,0.14240016043186188,9.584428022435668,-6.5803535676423985,41.34178654453594,-39.48212140585439,-65.08827985385416,34.046177154323715,-7.581711719240155,0.026148049639715783
154,0.14290015399456024,9.584428022435668,-6.437302403128434,41.19873538002197,-39.48212140585439,-64.9452286893402,34.046177154323715,-7.581711719240155,0.0258477516274135
155,0.1434001624584198,9.727479186949633,-6.437302403128434,41.19873538002197,-39.48212140585439,-64.9452286893402,34.18922831883768,-7.581711719240155,0.025547444665417814
156,0.14390015602111816,9.727479186949633,-6.437302403128434,41.19873538002197,-39.48212140585439,-64.65912636031227,34.18922831883768,-7.724762883754121,0.02524714665311553
157,0.14440016448497772,9.727479186949633,-6.437302403128434,41.19873538002197,-39.48212140585439,-64.37302403128433,34.33227948335165,-7.581711719240155,0.02492241359565403
158,0.1449001580476761,9.727479186949633,-6.437302403128434,41.19873538002197,-39.48212140585439,-64.0869217022564,34.33227948335165,-7.724762883754121,0.024597690215827982
159,0.14550015330314636,9.870530351463598,-6.437302403128434,41.19873538002197,-39.48212140585439,-64.22997286677037,34.618381812379575,-7.724762883754121,0.024208020224509633
160,0.14600016176700592,9.870530351463598,-6.294251238614469,41.34178654453594,-39.48212140585439,-64.22997286677037,34.761432976893545,-7.724762883754121,0.023883287167048135
161,0.14650015532970428,9.727479186949633,-6.294251238614469,41.484837709049906,-39.48212140585439,-64.37302403128433,35.04753530592147,-7.724762883754121,0.023558563787222084
162,0.14700016379356384,9.870530351463598,-6.294251238614469,41.62788887356387,-39.48212140585439,-64.65912636031227,35.190586470435434,-7.724762883754121,0.02323383072976059
163,0.1475001573562622,9.727479186949633,-6.294251238614469,41.34178654453594,-39.48212140585439,-64.80217752482623,35.190586470435434,-7.724762883754121,0.022909107349934538
164,0.14800015091896057,9.870530351463598,-6.294251238614469,41.19873538002197,-39.48212140585439,-64.80217752482623,35.190586470435434,-7.724762883754121,0.02258438397010849
165,0.14850015938282013,9.870530351463598,-6.294251238614469,41.19873538002197,-39.48212140585439,-65.08827985385416,35.190586470435434,-7.724762883754121,0.02225965091264699
166,0.1490001529455185,9.870530351463598,-6.294251238614469,40.912633050994046,-39.48212140585439,-65.08827985385416,35.04753530592147,-7.724762883754121,0.02193492753282094
167,0.14950016140937805,9.727479186949633,-6.294251238614469,40.912633050994046,-39.33907024134043,-65.08827985385416,35.04753530592147,-7.724762883754121,0.021610194475359445
168,0.15000015497207642,9.870530351463598,-6.294251238614469,40.912633050994046,-39.33907024134043,-64.80217752482623,34.90448414140751,-7.724762883754121,0.021285471095533394
169,0.15050016343593597,9.727479186949633,-6.294251238614469,40.912633050994046,-39.33907024134043,-64.65912636031227,34.761432976893545,-7.724762883754121,0.020960738038071896
170,0.15100015699863434,9.870530351463598,-6.294251238614469,41.05568421550801,-39.33907024134043,-64.65912636031227,34.618381812379575,-7.724762883754121,0.020636014658245848
171,0.1515001505613327,9.870530351463598,-6.151200074100503,41.05568421550801,-39.48212140585439,-64.65912636031227,34.618381812379575,-7.867814048268086,0.020311291278419796
172,0.15200015902519226,9.870530351463598,-6.294251238614469,41.05568421550801,-39.33907024134043,-64.51607519579831,34.618381812379575,-7.867814048268086,0.019986558220958302
173,0.15250015258789062,9.870530351463598,-6.151200074100503,41.19873538002197,-39.48212140585439,-64.0869217022564,34.33227948335165,-7.867814048268086,0.01966183484113225
174,0.15300016105175018,10.013581515977563,-6.294251238614469,41.05568421550801,-39.33907024134043,-63.80081937322848,34.18922831883768,-7.724762883754121,0.019337101783670752
175,0.15350015461444855,9.870530351463598,-6.151200074100503,41.05568421550801,-39.33907024134043,-63.65776820871451,34.046177154323715,-7.724762883754121,0.019012378403844704
176,0.1540001630783081,10.013581515977563,-6.151200074100503,41.05568421550801,-39.33907024134043,-63.80081937322848,34.046177154323715,-7.724762883754121,0.018683860409684165
177,0.15450015664100647,10.013581515977563,-6.151200074100503,41.19873538002197,-39.33907024134043,-63.80081937322848,34.046177154323715,-7.867814048268086,0.018349674970105496
178,0.15500015020370483,10.013581515977563,-6.151200074100503,41.19873538002197,-39.33907024134043,-63.80081937322848,34.18922831883768,-7.724762883754121,0.018015489530526826
179,0.1555001586675644,9.870530351463598,-6.151200074100503,41.05568421550801,-39.33907024134043,-63.80081937322848,34.18922831883768,-7.867814048268086,0.017681294131317724
180,0.15600015223026276,10.013581515977563,-6.151200074100503,40.912633050994046,-39.33907024134043,-63.80081937322848,34.33227948335165,-7.867814048268086,0.017347108691739055
181,0.15650016069412231,10.013581515977563,-6.151200074100503,40.76958188648008,-39.33907024134043,-63.94387053774244,34.47533064786561,-7.867814048268086,0.017012913292529953
182,0.15700015425682068,10.013581515977563,-6.008148909586538,40.76958188648008,-39.33907024134043,-64.0869217022564,34.33227948335165,-7.867814048268086,0.016678727852951283
183,0.15750016272068024,10.013581515977563,-6.008148909586538,40.62653072196611,-39.33907024134043,-64.0869217022564,34.33227948335165,-7.867814048268086,0.01634453245374218
184,0.1580001562833786,10.013581515977563,-6.008148909586538,40.76958188648008,-39.33907024134043,-64.0869217022564,34.18922831883768,-8.01086521278205,0.016010347014163512
185,0.15850016474723816,10.013581515977563,-6.008148909586538,40.76958188648008,-39.33907024134043,-64.0869217022564,34.18922831883768,-7.867814048268086,0.01567615161495441
186,0.15900015830993652,10.156632680491528,-6.008148909586538,40.76958188648008,-39.33907024134043,-64.0869217022564,34.33227948335165,-7.867814048268086,0.015341966175375742
187,0.1595001518726349,10.156632680491528,-6.008148909586538,40.76958188648008,-39.33907024134043,-64.0869217022564,34.33227948335165,-7.867814048268086,0.015007780735797074
188,0.16000016033649445,10.013581515977563,-5.865097745072573,40.62653072196611,-39.33907024134043,-64.0869217022564,34.33227948335165,-7.867814048268086,0.014673585336587972
189,0.1605001538991928,10.156632680491528,-5.865097745072573,40.48347955745215,-39.33907024134043,-64.0869217022564,34.33227948335165,-8.01086521278205,0.014339399897009303
190,0.16100016236305237,10.013581515977563,-5.865097745072573,40.48347955745215,-39.33907024134043,-63.94387053774244,34.33227948335165,-7.867814048268086,0.0140052044978002
191,0.16150015592575073,10.156632680491528,-5.865097745072573,40.340428392938186,-39.33907024134043,-63.80081937322848,34.47533064786561,-7.867814048268086,0.013671019058221531
192,0.1620001643896103,10.156632680491528,-5.865097745072573,40.340428392938186,-39.33907024134043,-63.94387053774244,34.47533064786561,-7.867814048268086,0.013336823659012429
193,0.16250015795230865,10.156632680491528,-5.865097745072573,40.340428392938186,-39.33907024134043,-63.80081937322848,34.47533064786561,-7.867814048268086,0.01300263821943376
194,0.16300015151500702,10.156632680491528,-5.865097745072573,40.340428392938186,-39.33907024134043,-63.80081937322848,34.33227948335165,-7.867814048268086,0.012668452779855092
195,0.16350015997886658,10.299683845005493,-5.865097745072573,40.48347955745215,-39.33907024134043,-63.80081937322848,34.47533064786561,-7.867814048268086,0.012334257380645988
196,0.16400015354156494,10.156632680491528,-5.722046580558608,40.48347955745215,-39.33907024134043,-63.94387053774244,34.47533064786561,-7.867814048268086,0.011993151832997711
197,0.1645001620054245,10.299683845005493,-5.722046580558608,40.62653072196611,-39.33907024134043,-63.65776820871451,34.618381812379575,-7.867814048268086,0.011641656163614586
198,0.16500015556812286,10.299683845005493,-5.722046580558608,40.912633050994046,-39.33907024134043,-63.514717044200545,34.761432976893545,-7.867814048268086,0.011290170969441397
199,0.16550016403198242,10.299683845005493,-5.722046580558608,40.912633050994046,-39.33907024134043,-63.65776820871451,34.90448414140751,-7.867814048268086,0.010938675300058272
200,0.1660001575946808,10.299683845005493,-5.722046580558608,40.912633050994046,-39.33907024134043,-63.65776820871451,35.04753530592147,-7.867814048268086,0.010587190105885082
201,0.16650015115737915,10.299683845005493,-5.722046580558608,40.912633050994046,-39.33907024134043,-63.80081937322848,35.04753530592147,-7.867814048268086,0.010235704911711892
202,0.1670001596212387,10.44273500951946,-5.722046580558608,40.912633050994046,-39.33907024134043,-63.94387053774244,35.190586470435434,-7.867814048268086,0.009884209242328766
203,0.16750015318393707,10.44273500951946,-5.722046580558608,41.05568421550801,-39.33907024134043,-64.0869217022564,35.333637634949405,-7.867814048268086,0.009532724048155576
204,0.16800016164779663,10.44273500951946,-5.578995416044642,41.19873538002197,-39.33907024134043,-63.94387053774244,35.61973996397733,-8.01086521278205,0.00918122837877245
205,0.168500155210495,10.44273500951946,-5.722046580558608,41.05568421550801,-39.33907024134043,-63.94387053774244,35.61973996397733,-8.01086521278205,0.00882974318459926
206,0.16900016367435455,10.44273500951946,-5.722046580558608,41.05568421550801,-39.48212140585439,-63.65776820871451,35.7627911284913,-8.01086521278205,0.008478247515216135
207,0.16950015723705292,10.44273500951946,-5.722046580558608,41.19873538002197,-39.33907024134043,-63.65776820871451,35.905842293005264,-8.153916377296015,0.008126762321042945
208,0.17000015079975128,10.44273500951946,-5.578995416044642,41.19873538002197,-39.33907024134043,-63.65776820871451,36.19194462203319,-8.153916377296015,0.007775277126869757
209,0.17050015926361084,10.44273500951946,-5.578995416044642,41.19873538002197,-39.48212140585439,-63.65776820871451,36.04889345751923,-8.153916377296015,0.007423781457486631
210,0.1710001528263092,10.44273500951946,-5.578995416044642,41.19873538002197,-39.48212140585439,-63.65776820871451,35.7627911284913,-8.01086521278205,0.007072296263313441
211,0.17150016129016876,10.44273500951946,-5.578995416044642,41.19873538002197,-39.48212140585439,-63.65776820871451,35.61973996397733,-8.01086521278205,0.006720800593930315
212,0.17200015485286713,10.585786174033425,-5.578995416044642,41.19873538002197,-39.33907024134043,-63.514717044200545,35.47668879946337,-8.01086521278205,0.006369315399757126
213,0.17250016331672668,10.44273500951946,-5.578995416044642,41.34178654453594,-39.33907024134043,-63.37166587968658,35.190586470435434,-8.153916377296015,0.006017819730374001
214,0.17300015687942505,10.44273500951946,-5.578995416044642,41.19873538002197,-39.33907024134043,-63.37166587968658,34.761432976893545,-8.153916377296015,0.005666334536200811
215,0.1735001504421234,10.585786174033425,-5.578995416044642,41.19873538002197,-39.48212140585439,-63.22861471517261,34.47533064786561,-8.153916377296015,0.005314849342027621
216,0.17400015890598297,10.44273500951946,-5.578995416044642,41.19873538002197,-39.48212140585439,-63.514717044200545,34.618381812379575,-8.153916377296015,0.004929983039019073
217,0.17450015246868134,10.585786174033425,-5.578995416044642,41.05568421550801,-39.48212140585439,-63.514717044200545,34.90448414140751,-8.153916377296015,0.004545128205726008
218,0.1750001609325409,10.585786174033425,-5.578995416044642,41.19873538002197,-39.48212140585439,-63.22861471517261,35.04753530592147,-8.153916377296015,0.00416026190271746
219,0.17550015449523926,10.585786174033425,-5.435944251530677,41.05568421550801,-39.48212140585439,-63.22861471517261,34.761432976893545,-8.153916377296015,0.0037754070694243948
220,0.17600016295909882,10.585786174033425,-5.435944251530677,40.912633050994046,-39.48212140585439,-63.22861471517261,34.47533064786561,-8.01086521278205,0.0033905407664158475
221,0.17650015652179718,10.585786174033425,-5.435944251530677,40.62653072196611,-39.48212140585439,-63.37166587968658,34.18922831883768,-8.01086521278205,0.003005685933122782
222,0.17700016498565674,10.72883733854739,-5.435944251530677,40.62653072196611,-39.48212140585439,-63.37166587968658,34.046177154323715,-8.01086521278205,0.002620819630114234
223,0.1775001585483551,10.585786174033425,-5.435944251530677,40.48347955745215,-39.33907024134043,-63.22861471517261,33.90312598980975,-8.01086521278205,0.002235964796821169
224,0.17800015211105347,10.72883733854739,-5.435944251530677,40.48347955745215,-39.48212140585439,-63.08556355065865,33.473972496267855,-7.867814048268086,0.0018511099635281037
225,0.17850016057491302,10.72883733854739,-5.435944251530677,40.62653072196611,-39.48212140585439,-63.08556355065865,33.18787016723992,-7.867814048268086,0.001466243660519556
226,0.1790001541376114,10.72883733854739,-5.435944251530677,40.62653072196611,-39.48212140585439,-63.08556355065865,33.18787016723992,-7.867814048268086,0.0010813888272264904
227,0.17950016260147095,10.871888503061355,-5.292893087016712,40.62653072196611,-39.48212140585439,-63.22861471517261,33.473972496267855,-8.01086521278205,0.0006965225242179431
228,0.1800001561641693,10.871888503061355,-5.435944251530677,40.62653072196611,-39.48212140585439,-63.22861471517261,33.61702366078182,-7.867814048268086,0.0003116676909248779
229,0.18050016462802887,10.871888503061355,-5.292893087016712,40.62653072196611,-39.48212140585439,-63.22861471517261,33.76007482529579,-8.01086521278205,-7.319861208366935e-05
230,0.18100015819072723,10.871888503061355,-5.292893087016712,40.62653072196611,-39.48212140585439,-63.22861471517261,34.18922831883768,-7.867814048268086,-0.00045805344537673456
231,0.1815001517534256,10.871888503061355,-5.292893087016712,40.76958188648008,-39.48212140585439,-63.37166587968658,34.761432976893545,-8.01086521278205,-0.0008429082786698006
232,0.18200016021728516,10.871888503061355,-5.292893087016712,40.76958188648008,-39.48212140585439,-63.514717044200545,35.61973996397733,-8.01086521278205,-0.001227774581678348
233,0.18250015377998352,10.871888503061355,-5.292893087016712,40.62653072196611,-39.48212140585439,-63.514717044200545,36.33499578654716,-8.153916377296015,-0.001612629414971413
234,0.18300016224384308,10.871888503061355,-5.292893087016712,40.62653072196611,-39.48212140585439,-63.65776820871451,36.62109811557509,-8.153916377296015,-0.0019974957179799604
235,0.18350015580654144,10.871888503061355,-5.292893087016712,40.62653072196611,-39.48212140585439,-63.65776820871451,36.33499578654716,-8.01086521278205,-0.0023823505512730265
236,0.184000164270401,10.871888503061355,-5.292893087016712,40.912633050994046,-39.48212140585439,-63.65776820871451,35.7627911284913,-8.01086521278205,-0.0027865225015387077
237,0.18450015783309937,10.871888503061355,-5.292893087016712,40.912633050994046,-39.48212140585439,-63.514717044200545,35.333637634949405,-8.01086521278205,-0.003195508674723961
238,0.18500015139579773,11.01493966757532,-5.292893087016712,41.05568421550801,-39.48212140585439,-63.22861471517261,34.90448414140751,-8.01086521278205,-0.003604494847909214
239,0.1855001598596573,10.871888503061355,-5.1498419225027465,41.34178654453594,-39.48212140585439,-62.942512386144685,34.90448414140751,-8.01086521278205,-0.00401349320998918
240,0.18600015342235565,10.871888503061355,-5.292893087016712,41.484837709049906,-39.48212140585439,-62.79946122163072,34.90448414140751,-8.01086521278205,-0.004422479383174433
241,0.1865001618862152,10.871888503061355,-5.292893087016712,41.34178654453594,-39.48212140585439,-63.08556355065865,34.90448414140751,-8.01086521278205,-0.004831477745254399
242,0.18700015544891357,10.871888503061355,-5.292893087016712,41.34178654453594,-39.48212140585439,-63.08556355065865,35.04753530592147,-8.01086521278205,-0.0052404639184396515
243,0.18750016391277313,11.01493966757532,-5.1498419225027465,41.34178654453594,-39.48212140585439,-63.22861471517261,35.190586470435434,-8.01086521278205,-0.005649462280519617
244,0.1880001574754715,11.01493966757532,-5.1498419225027465,41.484837709049906,-39.625172570368356,-63.08556355065865,35.7627911284913,-8.01086521278205,-0.00605844845370487
245,0.18850015103816986,11.01493966757532,-5.1498419225027465,41.484837709049906,-39.625172570368356,-63.22861471517261,36.19194462203319,-8.01086521278205,-0.006467434626890123
246,0.18900015950202942,11.01493966757532,-5.292893087016712,41.484837709049906,-39.625172570368356,-63.22861471517261,36.62109811557509,-8.153916377296015,-0.006876432988970089
247,0.18950015306472778,11.01493966757532,-5.1498419225027465,41.484837709049906,-39.625172570368356,-63.37166587968658,36.76414928008906,-8.153916377296015,-0.0072854191621553425
248,0.19000016152858734,11.01493966757532,-5.1498419225027465,41.484837709049906,-39.625172570368356,-63.37166587968658,36.62109811557509,-8.29696754180998,-0.007694417524235308
249,0.1905001550912857,11.01493966757532,-5.1498419225027465,41.34178654453594,-39.625172570368356,-63.514717044200545,36.33499578654716,-8.29696754180998,-0.008103403697420561
250,0.19100016355514526,11.01493966757532,-5.1498419225027465,41.484837709049906,-39.625172570368356,-63.65776820871451,35.905842293005264,-8.29696754180998,-0.008512402059500527
251,0.19150015711784363,11.157990832089284,-5.1498419225027465,41.484837709049906,-39.625172570368356,-63.65776820871451,35.04753530592147,-8.29696754180998,-0.00892138823268578
252,0.192000150680542,11.157990832089284,-5.006790757988782,41.484837709049906,-39.625172570368356,-63.80081937322848,34.33227948335165,-8.153916377296015,-0.009330374405871034
253,0.19250015914440155,11.157990832089284,-5.1498419225027465,41.62788887356387,-39.625172570368356,-63.94387053774244,34.18922831883768,-8.153916377296015,-0.009739372767950998
254,0.19300015270709991,11.157990832089284,-5.006790757988782,41.484837709049906,-39.625172570368356,-63.80081937322848,34.33227948335165,-8.29696754180998,-0.010148358941136252
255,0.19350016117095947,11.157990832089284,-5.006790757988782,41.484837709049906,-39.625172570368356,-63.80081937322848,34.47533064786561,-8.29696754180998,-0.010582651840010511
256,0.19400015473365784,11.157990832089284,-5.006790757988782,41.484837709049906,-39.625172570368356,-63.80081937322848,34.761432976893545,-8.29696754180998,-0.011023255241909655
257,0.1945001631975174,11.157990832089284,-5.006790757988782,41.62788887356387,-39.625172570368356,-63.37166587968658,35.333637634949405,-8.440018706323947,-0.011463871774982487
258,0.19500015676021576,11.157990832089284,-5.006790757988782,41.62788887356387,-39.625172570368356,-63.37166587968658,36.33499578654716,-8.440018706323947,-0.011904475176881632
259,0.19550015032291412,11.157990832089284,-5.006790757988782,41.77094003807784,-39.625172570368356,-63.514717044200545,37.90855859620078,-8.583069870837912,-0.012345078578780776
260,0.19600015878677368,11.157990832089284,-5.006790757988782,41.62788887356387,-39.625172570368356,-63.65776820871451,38.90991674779853,-8.726121035351877,-0.012785695111853608
261,0.19650015234947205,11.157990832089284,-5.006790757988782,41.77094003807784,-39.625172570368356,-63.94387053774244,38.6238144187706,-8.583069870837912,-0.013226298513752753
262,0.1970001608133316,11.30104199660325,-5.006790757988782,41.77094003807784,-39.625172570368356,-64.0869217022564,37.765507431686814,-8.583069870837912,-0.013666915046825585
263,0.19750015437602997,11.30104199660325,-5.006790757988782,41.77094003807784,-39.625172570368356,-63.94387053774244,37.19330277363095,-8.440018706323947,-0.01410751844872473
264,0.19800016283988953,11.30104199660325,-5.006790757988782,41.9139912025918,-39.625172570368356,-63.94387053774244,36.90720044460302,-8.29696754180998,-0.01454813498179756
265,0.1985001564025879,11.30104199660325,-5.006790757988782,42.057042367105765,-39.625172570368356,-64.0869217022564,36.62109811557509,-8.153916377296015,-0.014988738383696706
266,0.19910015165805817,11.30104199660325,-5.006790757988782,42.20009353161973,-39.625172570368356,-63.94387053774244,36.478046951061124,-8.153916377296015,-0.015517465092210418
267,0.19960016012191772,11.157990832089284,-5.006790757988782,42.3431446961337,-39.625172570368356,-63.80081937322848,36.62109811557509,-8.153916377296015,-0.015958081625283248
268,0.2001001536846161,11.157990832089284,-5.006790757988782,42.3431446961337,-39.625172570368356,-63.94387053774244,36.76414928008906,-8.153916377296015,-0.016398685027182395
269,0.20060016214847565,11.157990832089284,-5.1498419225027465,42.3431446961337,-39.625172570368356,-63.94387053774244,36.90720044460302,-8.29696754180998,-0.016839301560255225
270,0.201100155711174,11.157990832089284,-5.006790757988782,42.629247025161625,-39.625172570368356,-63.65776820871451,37.050251609116984,-8.440018706323947,-0.01727990496215437
271,0.20160016417503357,11.157990832089284,-5.1498419225027465,42.772298189675595,-39.768223734882326,-63.514717044200545,36.62109811557509,-8.29696754180998,-0.017720521495227202
272,0.20210015773773193,11.157990832089284,-5.006790757988782,42.3431446961337,-39.625172570368356,-63.22861471517261,35.61973996397733,-8.153916377296015,-0.018161124897126346
273,0.2026001513004303,11.157990832089284,-5.006790757988782,42.20009353161973,-39.768223734882326,-62.79946122163072,34.18922831883768,-8.153916377296015,-0.01860172829902549
274,0.20310015976428986,11.157990832089284,-5.006790757988782,42.20009353161973,-39.625172570368356,-62.65641005711675,32.61566550918406,-8.01086521278205,-0.019042344832098324
275,0.20360015332698822,11.157990832089284,-5.006790757988782,42.057042367105765,-39.768223734882326,-62.51335889260279,31.614307357586306,-7.867814048268086,-0.019490389908387397
276,0.20410016179084778,11.157990832089284,-4.863739593474817,41.9139912025918,-39.768223734882326,-62.08420539906089,31.471256193072342,-7.867814048268086,-0.019968214813409876
277,0.20460015535354614,11.30104199660325,-5.006790757988782,42.20009353161973,-39.768223734882326,-61.51200074100503,31.757358522100272,-7.867814048268086,-0.020446025478381542
278,0.2051001638174057,11.30104199660325,-5.006790757988782,42.20009353161973,-39.768223734882326,-61.51200074100503,32.329563180156136,-7.724762883754121,-0.020923850383404018
279,0.20560015738010406,11.30104199660325,-4.863739593474817,42.20009353161973,-39.768223734882326,-61.655051905518995,33.18787016723992,-7.867814048268086,-0.021401661048375684
280,0.20610015094280243,11.30104199660325,-5.006790757988782,42.057042367105765,-39.768223734882326,-62.08420539906089,34.046177154323715,-7.724762883754121,-0.02187947171334735
281,0.206600159406662,11.30104199660325,-4.863739593474817,42.057042367105765,-39.768223734882326,-62.370307728088825,34.90448414140751,-7.724762883754121,-0.02235729661836983
282,0.20710015296936035,11.30104199660325,-4.863739593474817,42.20009353161973,-39.768223734882326,-62.370307728088825,35.190586470435434,-7.724762883754121,-0.022835107283341496
283,0.2076001614332199,11.30104199660325,-4.863739593474817,42.20009353161973,-39.768223734882326,-62.08420539906089,35.190586470435434,-7.867814048268086,-0.023312932188363972
284,0.20810015499591827,11.444093161117216,-4.863739593474817,42.20009353161973,-39.768223734882326,-61.798103070032965,34.90448414140751,-7.867814048268086,-0.02379074285333564
285,0.20860016345977783,11.444093161117216,-4.863739593474817,42.20009353161973,-39.768223734882326,-61.655051905518995,34.618381812379575,-7.867814048268086,-0.024268567758358117
286,0.2091001570224762,11.30104199660325,-4.863739593474817,42.20009353161973,-39.768223734882326,-61.798103070032965,34.761432976893545,-7.724762883754121,-0.024746378423329784
287,0.20960015058517456,11.444093161117216,-4.863739593474817,42.20009353161973,-39.768223734882326,-61.798103070032965,34.90448414140751,-7.867814048268086,-0.02522418908830145
288,0.21010015904903412,11.444093161117216,-4.863739593474817,42.20009353161973,-39.768223734882326,-61.94115423454693,35.190586470435434,-7.867814048268086,-0.025702013993323926
289,0.21060015261173248,11.444093161117216,-4.720688428960852,42.20009353161973,-39.768223734882326,-62.08420539906089,35.333637634949405,-8.01086521278205,-0.026179824658295592
290,0.21110016107559204,11.587144325631181,-4.720688428960852,42.3431446961337,-39.768223734882326,-62.08420539906089,35.61973996397733,-8.01086521278205,-0.02665764956331807
291,0.2116001546382904,11.587144325631181,-4.720688428960852,42.20009353161973,-39.768223734882326,-62.227256563574855,35.7627911284913,-8.01086521278205,-0.027135460228289738
292,0.21210016310214996,11.444093161117216,-4.720688428960852,42.057042367105765,-39.768223734882326,-62.370307728088825,35.905842293005264,-8.153916377296015,-0.027613285133312217
293,0.21260015666484833,11.587144325631181,-4.720688428960852,42.20009353161973,-39.768223734882326,-62.65641005711675,36.04889345751923,-8.153916377296015,-0.02809109579828388
294,0.2131001502275467,11.587144325631181,-4.720688428960852,42.20009353161973,-39.768223734882326,-62.79946122163072,36.04889345751923,-8.153916377296015,-0.028568906463255547
295,0.21360015869140625,11.587144325631181,-4.720688428960852,42.3431446961337,-39.91127489939629,-62.79946122163072,36.19194462203319,-8.153916377296015,-0.029069816525824948
296,0.21410015225410461,11.587144325631181,-4.577637264446886,42.48619586064766,-39.768223734882326,-62.79946122163072,36.04889345751923,-8.29696754180998,-0.029586101306742052
297,0.21460016071796417,11.587144325631181,-4.720688428960852,42.629247025161625,-39.91127489939629,-62.65641005711675,36.04889345751923,-8.29696754180998,-0.030102401474342736
298,0.21510015428066254,11.587144325631181,-4.720688428960852,42.629247025161625,-39.91127489939629,-62.79946122163072,36.19194462203319,-8.29696754180998,-0.03061868625525984
299,0.2156001627445221,11.587144325631181,-4.720688428960852,42.629247025161625,-39.91127489939629,-62.79946122163072,36.19194462203319,-8.440018706323947,-0.031134986422860524
300,0.21610015630722046,11.587144325631181,-4.720688428960852,42.629247025161625,-39.91127489939629,-62.942512386144685,36.19194462203319,-8.440018706323947,-0.03165127120377763
301,0.21660016477108002,11.587144325631181,-4.720688428960852,42.48619586064766,-39.91127489939629,-62.942512386144685,36.19194462203319,-8.29696754180998,-0.03216757137137831
302,0.21710015833377838,11.587144325631181,-4.720688428960852,42.629247025161625,-39.768223734882326,-63.22861471517261,36.19194462203319,-8.29696754180998,-0.03268385615229542
303,0.21760015189647675,11.587144325631181,-4.720688428960852,42.629247025161625,-39.91127489939629,-63.514717044200545,36.33499578654716,-8.29696754180998,-0.03320014093321252
304,0.2181001603603363,11.587144325631181,-4.577637264446886,42.629247025161625,-39.768223734882326,-63.65776820871451,36.19194462203319,-8.440018706323947,-0.033716441100813205
305,0.21860015392303467,11.587144325631181,-4.577637264446886,42.629247025161625,-39.768223734882326,-63.37166587968658,35.905842293005264,-8.29696754180998,-0.034232725881730305
306,0.21910016238689423,11.587144325631181,-4.577637264446886,42.629247025161625,-39.768223734882326,-62.942512386144685,35.61973996397733,-8.153916377296015,-0.03474902604933099
307,0.2196001559495926,11.587144325631181,-4.720688428960852,42.629247025161625,-39.91127489939629,-62.79946122163072,35.333637634949405,-8.153916377296015,-0.035265310830248094
308,0.22010016441345215,11.587144325631181,-4.577637264446886,42.629247025161625,-39.768223734882326,-62.65641005711675,35.190586470435434,-8.153916377296015,-0.03578161099784878
309,0.2206001579761505,11.587144325631181,-4.577637264446886,42.629247025161625,-39.91127489939629,-62.51335889260279,35.04753530592147,-8.153916377296015,-0.03629789577876588
310,0.22110015153884888,11.587144325631181,-4.720688428960852,42.629247025161625,-39.768223734882326,-62.227256563574855,35.190586470435434,-8.153916377296015,-0.03681418055968298
311,0.22160016000270844,11.587144325631181,-4.577637264446886,42.629247025161625,-39.768223734882326,-62.51335889260279,35.61973996397733,-8.153916377296015,-0.03733048072728367
312,0.2221001535654068,11.730195490145146,-4.577637264446886,42.629247025161625,-39.768223734882326,-62.942512386144685,36.19194462203319,-8.153916377296015,-0.03784676550820077
313,0.22260016202926636,11.587144325631181,-4.577637264446886,42.629247025161625,-39.91127489939629,-63.08556355065865,36.76414928008906,-8.153916377296015,-0.03836306567580146
314,0.22310015559196472,11.587144325631181,-4.577637264446886,42.772298189675595,-39.91127489939629,-62.942512386144685,37.050251609116984,-8.153916377296015,-0.03887935045671856
315,0.22360016405582428,11.730195490145146,-4.577637264446886,42.772298189675595,-39.91127489939629,-62.227256563574855,36.478046951061124,-8.153916377296015,-0.03940167421678069
316,0.22410015761852264,11.730195490145146,-4.577637264446886,42.91534935418956,-39.91127489939629,-61.94115423454693,35.7627911284913,-8.153916377296015,-0.03994807606243498
317,0.224600151181221,11.587144325631181,-4.577637264446886,43.05840051870352,-39.91127489939629,-61.655051905518995,35.190586470435434,-8.29696754180998,-0.04049447790808927
318,0.22510015964508057,11.730195490145146,-4.577637264446886,42.91534935418956,-39.91127489939629,-61.51200074100503,34.761432976893545,-8.29696754180998,-0.041040896037997175
319,0.22560015320777893,11.730195490145146,-4.577637264446886,42.629247025161625,-39.768223734882326,-61.655051905518995,34.47533064786561,-8.153916377296015,-0.04158729788365147
320,0.2261001616716385,11.730195490145146,-4.577637264446886,42.48619586064766,-39.91127489939629,-61.94115423454693,33.76007482529579,-8.153916377296015,-0.04213371601355937
321,0.22660015523433685,11.730195490145146,-4.577637264446886,42.629247025161625,-39.768223734882326,-62.227256563574855,33.473972496267855,-8.153916377296015,-0.04268011785921366
322,0.2271001636981964,11.730195490145146,-4.577637264446886,42.48619586064766,-39.91127489939629,-62.227256563574855,33.473972496267855,-8.01086521278205,-0.043226535989121566
323,0.22760015726089478,11.87324665465911,-4.434586099932921,42.3431446961337,-39.768223734882326,-62.08420539906089,34.046177154323715,-8.153916377296015,-0.04377293783477586
324,0.22810015082359314,11.730195490145146,-4.434586099932921,42.3431446961337,-39.768223734882326,-62.08420539906089,34.618381812379575,-8.153916377296015,-0.04431933968043015
325,0.2286001592874527,11.87324665465911,-4.577637264446886,42.20009353161973,-39.91127489939629,-62.370307728088825,35.190586470435434,-8.153916377296015,-0.04486575781033805
326,0.22910015285015106,11.87324665465911,-4.434586099932921,42.3431446961337,-39.91127489939629,-62.51335889260279,35.905842293005264,-8.153916377296015,-0.04541215965599234
327,0.22960016131401062,11.87324665465911,-4.577637264446886,42.48619586064766,-39.91127489939629,-62.65641005711675,36.76414928008906,-8.29696754180998,-0.04595857778590024
328,0.23010015487670898,11.87324665465911,-4.434586099932921,42.629247025161625,-39.91127489939629,-62.65641005711675,37.33635393814492,-8.29696754180998,-0.04650497963155453
329,0.23060016334056854,11.87324665465911,-4.434586099932921,42.629247025161625,-39.91127489939629,-62.65641005711675,37.33635393814492,-8.29696754180998,-0.047051397761462437
330,0.2311001569032669,11.87324665465911,-4.577637264446886,42.91534935418956,-39.91127489939629,-62.65641005711675,37.47940510265888,-8.29696754180998,-0.04759779960711673
331,0.23160015046596527,11.87324665465911,-4.434586099932921,42.91534935418956,-39.91127489939629,-62.65641005711675,37.47940510265888,-8.440018706323947,-0.04814420145277102
332,0.23210015892982483,11.87324665465911,-4.434586099932921,42.91534935418956,-39.91127489939629,-62.65641005711675,37.62245626717284,-8.440018706323947,-0.04869061958267892
333,0.2326001524925232,11.87324665465911,-4.434586099932921,42.91534935418956,-39.91127489939629,-62.51335889260279,37.62245626717284,-8.583069870837912,-0.049237021428333215
334,0.23310016095638275,11.87324665465911,-4.434586099932921,42.629247025161625,-39.91127489939629,-62.65641005711675,37.62245626717284,-8.583069870837912,-0.04978343955824112
335,0.23360015451908112,11.87324665465911,-4.577637264446886,42.772298189675595,-39.91127489939629,-62.79946122163072,37.62245626717284,-8.726121035351877,-0.05032984140389541
336,0.23410016298294067,11.87324665465911,-4.577637264446886,42.772298189675595,-39.91127489939629,-63.08556355065865,37.765507431686814,-8.726121035351877,-0.05092060541445197
337,0.23460015654563904,11.87324665465911,-4.434586099932921,42.91534935418956,-39.91127489939629,-63.22861471517261,37.47940510265888,-8.726121035351877,-0.051511351819167064
338,0.2351001501083374,11.87324665465911,-4.577637264446886,42.91534935418956,-39.91127489939629,-63.37166587968658,36.76414928008906,-8.583069870837912,-0.05210209822388216
339,0.23560015857219696,12.016297819173076,-4.434586099932921,42.91534935418956,-39.91127489939629,-63.65776820871451,36.04889345751923,-8.440018706323947,-0.052692862234438725
340,0.23610015213489532,12.016297819173076,-4.434586099932921,42.91534935418956,-39.91127489939629,-63.94387053774244,35.7627911284913,-8.153916377296015,-0.053283608639153816
341,0.23660016059875488,12.016297819173076,-4.434586099932921,42.772298189675595,-39.91127489939629,-63.94387053774244,35.905842293005264,-8.153916377296015,-0.05387437264971038
342,0.23710015416145325,11.87324665465911,-4.434586099932921,42.629247025161625,-39.91127489939629,-63.80081937322848,36.33499578654716,-8.153916377296015,-0.05446511905442547
343,0.2376001626253128,11.87324665465911,-4.577637264446886,42.48619586064766,-39.91127489939629,-63.65776820871451,36.62109811557509,-8.29696754180998,-0.055055883064982034
344,0.23810015618801117,11.730195490145146,-4.577637264446886,42.3431446961337,-39.91127489939629,-63.514717044200545,36.478046951061124,-8.440018706323947,-0.05564662946969713
345,0.23860016465187073,11.730195490145146,-4.577637264446886,42.3431446961337,-39.91127489939629,-63.514717044200545,35.7627911284913,-8.440018706323947,-0.056237393480253695
346,0.2391001582145691,11.730195490145146,-4.720688428960852,42.20009353161973,-39.768223734882326,-63.514717044200545,34.47533064786561,-8.583069870837912,-0.056828139884968785
347,0.23960015177726746,11.730195490145146,-4.577637264446886,42.20009353161973,-39.768223734882326,-62.942512386144685,33.18787016723992,-8.440018706323947,-0.057418886289683876
348,0.24010016024112701,11.730195490145146,-4.577637264446886,42.20009353161973,-39.768223734882326,-62.370307728088825,32.61566550918406,-8.440018706323947,-0.05800965030024044
349,0.24060015380382538,11.87324665465911,-4.434586099932921,42.20009353161973,-39.768223734882326,-61.94115423454693,32.61566550918406,-8.29696754180998,-0.05860039670495554
350,0.24110016226768494,11.87324665465911,-4.434586099932921,42.057042367105765,-39.768223734882326,-61.51200074100503,32.4726143446701,-8.153916377296015,-0.0591911607155121
351,0.2416001558303833,11.87324665465911,-4.434586099932921,41.9139912025918,-39.768223734882326,-61.655051905518995,32.61566550918406,-8.01086521278205,-0.05978190712022719
352,0.24210016429424286,11.87324665465911,-4.434586099932921,41.77094003807784,-39.768223734882326,-61.94115423454693,33.18787016723992,-8.01086521278205,-0.060372671130783755
353,0.24260015785694122,11.87324665465911,-4.434586099932921,41.484837709049906,-39.768223734882326,-62.08420539906089,33.90312598980975,-8.01086521278205,-0.060963417535498846
354,0.2431001514196396,11.87324665465911,-4.434586099932921,41.484837709049906,-39.768223734882326,-62.370307728088825,34.47533064786561,-7.867814048268086,-0.06155416394021394
355,0.24360015988349915,12.016297819173076,-4.434586099932921,41.34178654453594,-39.768223734882326,-62.51335889260279,35.04753530592147,-8.01086521278205,-0.06214492795077051
356,0.2441001534461975,11.87324665465911,-4.434586099932921,41.34178654453594,-39.768223734882326,-62.79946122163072,35.905842293005264,-8.01086521278205,-0.06278453071461176
357,0.24460016191005707,12.016297819173076,-4.434586099932921,41.484837709049906,-39.768223734882326,-62.65641005711675,36.478046951061124,-8.153916377296015,-0.06342415254034621
358,0.24510015547275543,11.87324665465911,-4.434586099932921,41.484837709049906,-39.91127489939629,-62.51335889260279,36.90720044460302,-8.153916377296015,-0.06406375530418747
359,0.245600163936615,11.87324665465911,-4.434586099932921,41.34178654453594,-39.768223734882326,-62.65641005711675,36.90720044460302,-8.153916377296015,-0.06470337712992191
360,0.24610015749931335,11.87324665465911,-4.434586099932921,41.34178654453594,-39.91127489939629,-62.942512386144685,36.62109811557509,-8.153916377296015,-0.06534297989376317
361,0.24660015106201172,11.87324665465911,-4.434586099932921,41.19873538002197,-39.768223734882326,-63.514717044200545,36.19194462203319,-8.153916377296015,-0.06598258265760444
362,0.24710015952587128,11.87324665465911,-4.434586099932921,41.19873538002197,-39.768223734882326,-63.37166587968658,35.7627911284913,-8.29696754180998,-0.06662220448333889
363,0.24760015308856964,12.016297819173076,-4.434586099932921,41.19873538002197,-39.768223734882326,-63.22861471517261,35.61973996397733,-8.29696754180998,-0.06726180724718014
364,0.2481001615524292,11.87324665465911,-4.434586099932921,41.19873538002197,-39.91127489939629,-63.37166587968658,35.61973996397733,-8.29696754180998,-0.06790142907291459
365,0.24860015511512756,12.016297819173076,-4.434586099932921,41.05568421550801,-39.768223734882326,-63.37166587968658,35.47668879946337,-8.153916377296015,-0.06854103183675585
366,0.24910016357898712,12.016297819173076,-4.434586099932921,41.05568421550801,-39.768223734882326,-63.22861471517261,35.190586470435434,-8.01086521278205,-0.0691806536624903
367,0.24960015714168549,12.016297819173076,-4.434586099932921,40.912633050994046,-39.768223734882326,-63.08556355065865,34.90448414140751,-7.867814048268086,-0.06982025642633155
368,0.25010016560554504,12.016297819173076,-4.291534935418956,41.05568421550801,-39.91127489939629,-62.942512386144685,35.04753530592147,-7.867814048268086,-0.070459878252066
369,0.2506001591682434,12.016297819173076,-4.434586099932921,40.912633050994046,-39.768223734882326,-62.65641005711675,34.90448414140751,-8.01086521278205,-0.07109948101590725
370,0.2511001527309418,12.016297819173076,-4.291534935418956,40.912633050994046,-39.91127489939629,-62.51335889260279,34.761432976893545,-8.29696754180998,-0.07173908377974852
371,0.25160014629364014,12.016297819173076,-4.434586099932921,40.912633050994046,-39.91127489939629,-62.370307728088825,34.47533064786561,-8.29696754180998,-0.07237868654358978
372,0.2521001696586609,12.016297819173076,-4.434586099932921,40.912633050994046,-39.91127489939629,-62.227256563574855,34.33227948335165,-8.29696754180998,-0.0730183274312174
373,0.25260016322135925,12.016297819173076,-4.434586099932921,40.912633050994046,-39.91127489939629,-62.370307728088825,34.618381812379575,-8.29696754180998,-0.07365793019505867
374,0.25320014357566833,12.016297819173076,-4.291534935418956,40.62653072196611,-39.768223734882326,-62.79946122163072,34.90448414140751,-8.153916377296015,-0.07442543826215363
375,0.2537001669406891,12.016297819173076,-4.434586099932921,40.62653072196611,-39.768223734882326,-63.08556355065865,35.333637634949405,-8.01086521278205,-0.07507447046251088
376,0.25420016050338745,12.016297819173076,-4.291534935418956,40.62653072196611,-39.768223734882326,-63.08556355065865,35.61973996397733,-8.01086521278205,-0.0757610213949054
377,0.2547001540660858,12.016297819173076,-4.434586099932921,40.62653072196611,-39.768223734882326,-62.942512386144685,35.61973996397733,-8.01086521278205,-0.07644757232729991
378,0.2552001476287842,12.016297819173076,-4.291534935418956,40.48347955745215,-39.768223734882326,-63.08556355065865,35.61973996397733,-8.01086521278205,-0.07713412325969445
379,0.25570017099380493,12.016297819173076,-4.291534935418956,40.340428392938186,-39.768223734882326,-63.37166587968658,35.61973996397733,-8.01086521278205,-0.07782071511424027
380,0.2562001645565033,12.016297819173076,-4.434586099932921,40.197377228424216,-39.768223734882326,-63.514717044200545,35.61973996397733,-8.01086521278205,-0.0785072660466348
381,0.25670015811920166,12.016297819173076,-4.434586099932921,40.05432606391025,-39.768223734882326,-63.65776820871451,35.7627911284913,-8.01086521278205,-0.07919381697902932
382,0.2572001516819,12.016297819173076,-4.434586099932921,40.05432606391025,-39.768223734882326,-63.514717044200545,36.04889345751923,-8.01086521278205,-0.07988036791142383
383,0.2577001452445984,12.15934898368704,-4.434586099932921,39.91127489939629,-39.768223734882326,-63.22861471517261,36.19194462203319,-8.153916377296015,-0.08056691884381836
384,0.25820016860961914,12.016297819173076,-4.291534935418956,39.91127489939629,-39.768223734882326,-62.65641005711675,36.19194462203319,-8.01086521278205,-0.08125351069836419
385,0.2587001621723175,12.15934898368704,-4.434586099932921,39.768223734882326,-39.91127489939629,-62.08420539906089,36.04889345751923,-8.153916377296015,-0.08194006163075872
386,0.25920015573501587,12.15934898368704,-4.434586099932921,39.768223734882326,-39.768223734882326,-61.798103070032965,36.04889345751923,-8.153916377296015,-0.08262661256315323
387,0.25970014929771423,12.15934898368704,-4.434586099932921,39.768223734882326,-39.768223734882326,-62.08420539906089,35.905842293005264,-8.01086521278205,-0.08331316349554777
388,0.2602001428604126,12.15934898368704,-4.434586099932921,39.768223734882326,-39.768223734882326,-62.942512386144685,35.905842293005264,-8.01086521278205,-0.08399971442794228
389,0.26070016622543335,12.15934898368704,-4.434586099932921,39.625172570368356,-39.768223734882326,-63.22861471517261,35.7627911284913,-8.153916377296015,-0.0846863062824881
390,0.2612001597881317,12.15934898368704,-4.434586099932921,39.625172570368356,-39.768223734882326,-63.08556355065865,35.61973996397733,-8.01086521278205,-0.08537285721488264
391,0.2617001533508301,12.15934898368704,-4.434586099932921,39.625172570368356,-39.768223734882326,-62.65641005711675,35.333637634949405,-7.867814048268086,-0.08605940814727715
392,0.26220014691352844,12.15934898368704,-4.434586099932921,39.625172570368356,-39.768223734882326,-61.798103070032965,35.04753530592147,-7.867814048268086,-0.08674595907967168
393,0.2627001702785492,12.15934898368704,-4.291534935418956,39.625172570368356,-39.768223734882326,-61.51200074100503,35.04753530592147,-7.867814048268086,-0.0874325509342175
394,0.26320016384124756,12.15934898368704,-4.434586099932921,39.48212140585439,-39.768223734882326,-62.08420539906089,35.190586470435434,-7.867814048268086,-0.08811910186661202
395,0.2637001574039459,12.302400148201006,-4.434586099932921,39.48212140585439,-39.768223734882326,-62.942512386144685,35.47668879946337,-8.153916377296015,-0.08881346598551666
396,0.2642001509666443,12.302400148201006,-4.434586099932921,39.48212140585439,-39.768223734882326,-63.37166587968658,35.61973996397733,-8.153916377296015,-0.08953908750809901
397,0.26470014452934265,12.15934898368704,-4.291534935418956,39.48212140585439,-39.91127489939629,-63.08556355065865,35.61973996397733,-8.29696754180998,-0.09026470903068136
398,0.2652001678943634,12.302400148201006,-4.291534935418956,39.625172570368356,-39.768223734882326,-62.51335889260279,35.47668879946337,-8.153916377296015,-0.09099037380423364
399,0.26570016145706177,12.15934898368704,-4.434586099932921,39.625172570368356,-39.768223734882326,-61.94115423454693,35.333637634949405,-8.01086521278205,-0.09171599532681599
400,0.26620015501976013,12.15934898368704,-4.291534935418956,39.48212140585439,-39.91127489939629,-62.08420539906089,35.190586470435434,-7.867814048268086,-0.09244161684939833
401,0.2667001485824585,12.302400148201006,-4.434586099932921,39.19601907682646,-39.768223734882326,-62.65641005711675,35.190586470435434,-8.01086521278205,-0.09316723837198068
402,0.26720017194747925,12.15934898368704,-4.291534935418956,39.052967912312496,-39.768223734882326,-63.08556355065865,35.61973996397733,-8.153916377296015,-0.09389290314553297
403,0.2677001655101776,12.302400148201006,-4.434586099932921,39.052967912312496,-39.768223734882326,-62.79946122163072,35.7627911284913,-8.29696754180998,-0.09461852466811532
404,0.268200159072876,12.15934898368704,-4.434586099932921,39.052967912312496,-39.768223734882326,-62.227256563574855,35.905842293005264,-8.29696754180998,-0.09534414619069767
405,0.26870015263557434,12.302400148201006,-4.434586099932921,39.19601907682646,-39.91127489939629,-62.370307728088825,35.7627911284913,-8.153916377296015,-0.09606976771328002
406,0.2692001461982727,12.302400148201006,-4.291534935418956,39.19601907682646,-39.91127489939629,-62.51335889260279,35.61973996397733,-8.153916377296015,-0.09679538923586237
407,0.26970016956329346,12.15934898368704,-4.434586099932921,39.19601907682646,-39.768223734882326,-62.942512386144685,35.47668879946337,-8.01086521278205,-0.09752105400941465
408,0.2702001631259918,12.302400148201006,-4.291534935418956,39.33907024134043,-39.768223734882326,-63.08556355065865,35.47668879946337,-8.153916377296015,-0.098246675531997
409,0.2707001566886902,12.15934898368704,-4.434586099932921,39.19601907682646,-39.768223734882326,-63.37166587968658,35.47668879946337,-8.153916377296015,-0.09897229705457934
410,0.27120015025138855,12.302400148201006,-4.291534935418956,39.19601907682646,-39.768223734882326,-63.65776820871451,35.61973996397733,-8.153916377296015,-0.09969791857716169
411,0.2717001438140869,12.302400148201006,-4.291534935418956,39.19601907682646,-39.768223734882326,-63.94387053774244,35.7627911284913,-8.01086521278205,-0.10042354009974404
412,0.27220016717910767,12.302400148201006,-4.291534935418956,39.19601907682646,-39.768223734882326,-64.0869217022564,35.905842293005264,-8.01086521278205,-0.10114920487329632
413,0.27270016074180603,12.302400148201006,-4.291534935418956,39.052967912312496,-39.91127489939629,-63.94387053774244,36.04889345751923,-8.153916377296015,-0.10187482639587866
414,0.2732001543045044,12.302400148201006,-4.291534935418956,39.052967912312496,-39.91127489939629,-63.80081937322848,36.04889345751923,-8.01086521278205,-0.10260044791846101
415,0.27370014786720276,12.302400148201006,-4.291534935418956,38.90991674779853,-39.91127489939629,-63.65776820871451,35.905842293005264,-8.01086521278205,-0.1033407562021404
416,0.2742001712322235,12.302400148201006,-4.291534935418956,38.90991674779853,-39.91127489939629,-62.79946122163072,35.61973996397733,-8.153916377296015,-0.1041031389726657
417,0.2747001647949219,12.302400148201006,-4.291534935418956,38.90991674779853,-39.91127489939629,-61.36894957649107,35.47668879946337,-8.29696754180998,-0.10486547630376017
418,0.27520015835762024,12.302400148201006,-4.291534935418956,39.052967912312496,-39.91127489939629,-60.93979608294917,35.47668879946337,-8.153916377296015,-0.10562781363485463
419,0.2757001519203186,12.302400148201006,-4.291534935418956,39.052967912312496,-39.768223734882326,-61.2258984119771,35.333637634949405,-8.29696754180998,-0.1063901509659491
420,0.27620014548301697,12.302400148201006,-4.291534935418956,38.90991674779853,-39.91127489939629,-61.798103070032965,35.47668879946337,-8.29696754180998,-0.10715248829704357
421,0.2767001688480377,12.302400148201006,-4.291534935418956,38.76686558328457,-39.768223734882326,-62.51335889260279,35.47668879946337,-8.29696754180998,-0.10791487106756886
422,0.2772001624107361,12.302400148201006,-4.291534935418956,38.6238144187706,-39.91127489939629,-62.942512386144685,35.47668879946337,-8.29696754180998,-0.10867720839866334
423,0.27770015597343445,12.302400148201006,-4.291534935418956,38.6238144187706,-39.768223734882326,-63.37166587968658,35.47668879946337,-8.440018706323947,-0.10943954572975781
424,0.2782001495361328,12.302400148201006,-4.291534935418956,38.6238144187706,-39.91127489939629,-63.22861471517261,35.47668879946337,-8.29696754180998,-0.11020188306085227
425,0.2787001430988312,12.302400148201006,-4.291534935418956,38.76686558328457,-39.91127489939629,-63.22861471517261,35.333637634949405,-8.29696754180998,-0.11096422039194674
426,0.27920016646385193,12.302400148201006,-4.291534935418956,38.76686558328457,-39.91127489939629,-63.37166587968658,35.190586470435434,-8.29696754180998,-0.11172660316247204
427,0.2797001600265503,12.302400148201006,-4.291534935418956,38.76686558328457,-39.91127489939629,-63.22861471517261,35.190586470435434,-8.153916377296015,-0.1124889404935665
428,0.28020015358924866,12.302400148201006,-4.291534935418956,38.90991674779853,-39.91127489939629,-63.22861471517261,35.190586470435434,-8.29696754180998,-0.11325127782466098
429,0.280700147151947,12.302400148201006,-4.291534935418956,38.90991674779853,-39.91127489939629,-63.22861471517261,35.47668879946337,-8.153916377296015,-0.11401361515575545
430,0.2812001705169678,12.302400148201006,-4.291534935418956,38.90991674779853,-39.91127489939629,-63.08556355065865,35.7627911284913,-8.29696754180998,-0.11477599792628075
431,0.28170016407966614,12.445451312714972,-4.291534935418956,38.90991674779853,-39.91127489939629,-63.22861471517261,36.04889345751923,-8.29696754180998,-0.11553833525737521
432,0.2822001576423645,12.445451312714972,-4.291534935418956,38.90991674779853,-39.91127489939629,-63.08556355065865,36.04889345751923,-8.29696754180998,-0.11630067258846968
433,0.28270015120506287,12.302400148201006,-4.291534935418956,39.052967912312496,-39.91127489939629,-63.08556355065865,36.04889345751923,-8.29696754180998,-0.11706300991956414
434,0.28320014476776123,12.302400148201006,-4.291534935418956,39.052967912312496,-39.91127489939629,-63.22861471517261,36.33499578654716,-8.29696754180998,-0.11782534725065862
435,0.283700168132782,12.445451312714972,-4.14848377090499,39.052967912312496,-39.91127489939629,-63.22861471517261,36.33499578654716,-8.29696754180998,-0.11860019081908134
436,0.28420016169548035,12.445451312714972,-4.291534935418956,39.19601907682646,-40.05432606391025,-63.22861471517261,36.19194462203319,-8.29696754180998,-0.11939367921653327
437,0.2847001552581787,12.445451312714972,-4.291534935418956,39.33907024134043,-40.05432606391025,-63.08556355065865,36.04889345751923,-8.29696754180998,-0.1201871676139852
438,0.2852001488208771,12.445451312714972,-4.14848377090499,39.48212140585439,-39.91127489939629,-63.22861471517261,36.04889345751923,-8.29696754180998,-0.12098065601143712
439,0.2857001721858978,12.445451312714972,-4.291534935418956,39.48212140585439,-40.05432606391025,-63.08556355065865,36.33499578654716,-8.440018706323947,-0.12177419170509203
440,0.2862001657485962,12.445451312714972,-4.291534935418956,39.33907024134043,-40.05432606391025,-63.37166587968658,36.76414928008906,-8.29696754180998,-0.12256768010254396
441,0.28670015931129456,12.445451312714972,-4.291534935418956,39.33907024134043,-40.05432606391025,-63.65776820871451,37.19330277363095,-8.29696754180998,-0.1233611684999959
442,0.2872001528739929,12.445451312714972,-4.291534935418956,39.19601907682646,-40.05432606391025,-63.94387053774244,37.47940510265888,-8.440018706323947,-0.12415465689744783
443,0.2877001464366913,12.445451312714972,-4.291534935418956,39.19601907682646,-40.05432606391025,-64.0869217022564,37.33635393814492,-8.583069870837912,-0.12494814529489975
444,0.28820016980171204,12.445451312714972,-4.291534935418956,39.052967912312496,-40.05432606391025,-64.22997286677037,36.90720044460302,-8.440018706323947,-0.12574168098855468
445,0.2887001633644104,12.445451312714972,-4.291534935418956,39.19601907682646,-40.05432606391025,-64.37302403128433,36.76414928008906,-8.440018706323947,-0.1265351693860066
446,0.28920015692710876,12.302400148201006,-4.291534935418956,39.19601907682646,-40.05432606391025,-64.37302403128433,36.33499578654716,-8.440018706323947,-0.12732865778345853
447,0.28970015048980713,12.445451312714972,-4.291534935418956,39.33907024134043,-40.05432606391025,-64.51607519579831,36.19194462203319,-8.29696754180998,-0.12812214618091045
448,0.2902001440525055,12.445451312714972,-4.291534935418956,39.19601907682646,-39.91127489939629,-64.51607519579831,36.04889345751923,-8.440018706323947,-0.1289156345783624
449,0.29070016741752625,12.302400148201006,-4.291534935418956,39.19601907682646,-40.05432606391025,-64.51607519579831,36.04889345751923,-8.440018706323947,-0.12970917027201728
450,0.2912001609802246,12.445451312714972,-4.291534935418956,39.19601907682646,-40.05432606391025,-64.51607519579831,36.19194462203319,-8.440018706323947,-0.13050265866946922
451,0.291700154542923,12.445451312714972,-4.291534935418956,39.19601907682646,-39.91127489939629,-64.0869217022564,36.478046951061124,-8.583069870837912,-0.13129614706692116
452,0.29220014810562134,12.445451312714972,-4.291534935418956,39.19601907682646,-40.05432606391025,-63.37166587968658,36.33499578654716,-8.583069870837912,-0.13208963546437308
453,0.2927001714706421,12.445451312714972,-4.291534935418956,39.052967912312496,-39.91127489939629,-63.22861471517261,36.04889345751923,-8.583069870837912,-0.132883171158028
454,0.29320016503334045,12.445451312714972,-4.291534935418956,38.90991674779853,-40.05432606391025,-63.514717044200545,35.7627911284913,-8.583069870837912,-0.13367665955547992
455,0.2937001585960388,12.445451312714972,-4.434586099932921,38.76686558328457,-40.05432606391025,-63.80081937322848,35.333637634949405,-8.440018706323947,-0.13448053150735598
456,0.2942001521587372,12.445451312714972,-4.291534935418956,38.76686558328457,-40.05432606391025,-63.65776820871451,35.190586470435434,-8.440018706323947,-0.1352999780172462
457,0.29470014572143555,12.445451312714972,-4.291534935418956,38.76686558328457,-40.05432606391025,-63.22861471517261,35.333637634949405,-8.29696754180998,-0.1361194245271364
458,0.2952001690864563,12.445451312714972,-4.291534935418956,38.76686558328457,-40.05432606391025,-62.942512386144685,35.47668879946337,-8.29696754180998,-0.1369389198804736
459,0.29570016264915466,12.445451312714972,-4.291534935418956,38.76686558328457,-40.05432606391025,-63.08556355065865,35.61973996397733,-8.29696754180998,-0.13775836639036382
460,0.296200156211853,12.445451312714972,-4.291534935418956,38.6238144187706,-40.05432606391025,-63.37166587968658,35.7627911284913,-8.29696754180998,-0.13857781290025406
461,0.2967001497745514,12.445451312714972,-4.291534935418956,38.6238144187706,-40.05432606391025,-63.514717044200545,35.7627911284913,-8.29696754180998,-0.13939725941014428
462,0.29720014333724976,12.445451312714972,-4.291534935418956,38.6238144187706,-40.05432606391025,-63.65776820871451,35.7627911284913,-8.29696754180998,-0.1402167059200345
463,0.2977001667022705,12.445451312714972,-4.291534935418956,38.6238144187706,-40.05432606391025,-63.65776820871451,35.905842293005264,-8.29696754180998,-0.1410362012733717
464,0.29820016026496887,12.445451312714972,-4.291534935418956,38.6238144187706,-40.05432606391025,-63.514717044200545,35.61973996397733,-8.29696754180998,-0.14185564778326193
465,0.29870015382766724,12.445451312714972,-4.291534935418956,38.6238144187706,-40.05432606391025,-63.514717044200545,35.47668879946337,-8.29696754180998,-0.14267509429315214
466,0.2992001473903656,12.445451312714972,-4.291534935418956,38.76686558328457,-40.05432606391025,-63.37166587968658,35.61973996397733,-8.153916377296015,-0.14349454080304236
467,0.29970017075538635,12.445451312714972,-4.291534935418956,38.76686558328457,-40.05432606391025,-63.22861471517261,35.61973996397733,-8.29696754180998,-0.14431403615637955
468,0.3002001643180847,12.445451312714972,-4.291534935418956,38.90991674779853,-40.05432606391025,-63.22861471517261,35.61973996397733,-8.153916377296015,-0.14513348266626977
469,0.3007001578807831,12.445451312714972,-4.434586099932921,38.90991674779853,-40.05432606391025,-63.22861471517261,35.61973996397733,-8.29696754180998,-0.14595292917616
470,0.30120015144348145,12.445451312714972,-4.291534935418956,38.90991674779853,-40.197377228424216,-63.37166587968658,35.47668879946337,-8.29696754180998,-0.14677237568605023
471,0.3017001450061798,12.445451312714972,-4.434586099932921,39.052967912312496,-40.05432606391025,-63.37166587968658,35.61973996397733,-8.29696754180998,-0.14759182219594044
472,0.30220016837120056,12.445451312714972,-4.291534935418956,39.052967912312496,-40.05432606391025,-63.37166587968658,35.61973996397733,-8.29696754180998,-0.14841131754927764
473,0.3027001619338989,12.445451312714972,-4.291534935418956,39.052967912312496,-40.05432606391025,-63.37166587968658,35.905842293005264,-8.29696754180998,-0.14923076405916785
474,0.3032001554965973,12.445451312714972,-4.291534935418956,39.052967912312496,-40.197377228424216,-63.514717044200545,36.04889345751923,-8.29696754180998,-0.1500502105690581
475,0.30370014905929565,12.445451312714972,-4.291534935418956,39.052967912312496,-40.197377228424216,-63.514717044200545,36.19194462203319,-8.153916377296015,-0.15087950815050527
476,0.3042001724243164,12.588502477228937,-4.291534935418956,39.19601907682646,-40.197377228424216,-63.514717044200545,36.19194462203319,-8.29696754180998,-0.15174826767033514
477,0.30470016598701477,12.445451312714972,-4.434586099932921,39.19601907682646,-40.197377228424216,-63.514717044200545,36.33499578654716,-8.29696754180998,-0.15261697541048208
478,0.30520015954971313,12.588502477228937,-4.291534935418956,39.052967912312496,-40.197377228424216,-63.94387053774244,36.33499578654716,-8.29696754180998,-0.15348568315062902
479,0.3057001531124115,12.445451312714972,-4.434586099932921,39.052967912312496,-40.197377228424216,-64.0869217022564,36.33499578654716,-8.29696754180998,-0.15435439089077596
480,0.30620014667510986,12.588502477228937,-4.291534935418956,39.052967912312496,-40.197377228424216,-64.22997286677037,36.19194462203319,-8.29696754180998,-0.1552230986309229
481,0.30680015683174133,12.588502477228937,-4.291534935418956,39.052967912312496,-40.05432606391025,-64.0869217022564,36.04889345751923,-8.29696754180998,-0.15626557898690896
482,0.3073001503944397,12.588502477228937,-4.291534935418956,38.90991674779853,-40.197377228424216,-63.94387053774244,35.905842293005264,-8.440018706323947,-0.1571342867270559
483,0.30780014395713806,12.588502477228937,-4.291534935418956,38.76686558328457,-40.197377228424216,-63.65776820871451,35.7627911284913,-8.440018706323947,-0.15800299446720284
484,0.3083001673221588,12.588502477228937,-4.291534935418956,38.76686558328457,-40.197377228424216,-63.514717044200545,35.61973996397733,-8.583069870837912,-0.15887175398703268
485,0.3088001608848572,12.445451312714972,-4.434586099932921,38.76686558328457,-40.197377228424216,-63.514717044200545,35.7627911284913,-8.440018706323947,-0.15974046172717962
486,0.30930015444755554,12.588502477228937,-4.291534935418956,38.76686558328457,-40.197377228424216,-63.65776820871451,35.7627911284913,-8.440018706323947,-0.16060916946732656
487,0.3098001480102539,12.588502477228937,-4.291534935418956,38.76686558328457,-40.197377228424216,-63.80081937322848,35.7627911284913,-8.29696754180998,-0.1614778772074735
488,0.31030017137527466,12.588502477228937,-4.434586099932921,38.6238144187706,-40.197377228424216,-63.94387053774244,35.905842293005264,-8.29696754180998,-0.16234663672730337
489,0.310800164937973,12.445451312714972,-4.434586099932921,38.48076325425664,-40.197377228424216,-64.0869217022564,36.04889345751923,-8.29696754180998,-0.1632153444674503
490,0.3113001585006714,12.588502477228937,-4.434586099932921,38.1946609252287,-40.340428392938186,-64.22997286677037,36.04889345751923,-8.29696754180998,-0.16408405220759725
491,0.31180015206336975,12.588502477228937,-4.434586099932921,38.1946609252287,-40.197377228424216,-64.22997286677037,36.04889345751923,-8.29696754180998,-0.1649527599477442
492,0.3123001456260681,12.588502477228937,-4.291534935418956,38.33771208974267,-40.340428392938186,-64.0869217022564,36.04889345751923,-8.29696754180998,-0.16582146768789113
493,0.31280016899108887,12.588502477228937,-4.434586099932921,38.6238144187706,-40.340428392938186,-63.65776820871451,36.04889345751923,-8.29696754180998,-0.16669022720772098
494,0.31330016255378723,12.588502477228937,-4.291534935418956,38.6238144187706,-40.340428392938186,-63.65776820871451,36.04889345751923,-8.29696754180998,-0.16755893494786792
495,0.3138001561164856,12.588502477228937,-4.434586099932921,38.6238144187706,-40.197377228424216,-63.94387053774244,36.04889345751923,-8.29696754180998,-0.16844437475000734
496,0.31430014967918396,12.588502477228937,-4.434586099932921,39.052967912312496,-40.197377228424216,-64.0869217022564,36.04889345751923,-8.29696754180998,-0.16935491139852088
497,0.3148001432418823,12.588502477228937,-4.291534935418956,39.19601907682646,-40.340428392938186,-64.0869217022564,35.905842293005264,-8.29696754180998,-0.17026544804703442
498,0.3153001666069031,12.588502477228937,-4.434586099932921,39.052967912312496,-40.340428392938186,-64.0869217022564,35.905842293005264,-8.29696754180998,-0.17117603896846018
499,0.31580016016960144,12.588502477228937,-4.291534935418956,39.052967912312496,-40.340428392938186,-63.65776820871451,35.905842293005264,-8.29696754180998,-0.1720865756169737
500,0.3163001537322998,12.588502477228937,-4.434586099932921,39.052967912312496,-40.340428392938186,-63.514717044200545,35.905842293005264,-8.29696754180998,-0.17299711226548722
501,0.31680014729499817,12.588502477228937,-4.434586099932921,38.90991674779853,-40.340428392938186,-63.514717044200545,35.905842293005264,-8.153916377296015,-0.17390764891400076
502,0.3173001706600189,12.588502477228937,-4.434586099932921,38.6238144187706,-40.340428392938186,-63.65776820871451,35.905842293005264,-8.29696754180998,-0.17481823983542652
503,0.3178001642227173,12.588502477228937,-4.434586099932921,38.48076325425664,-40.340428392938186,-63.514717044200545,35.905842293005264,-8.153916377296015,-0.17572877648394006
504,0.31830015778541565,12.588502477228937,-4.434586099932921,38.48076325425664,-40.340428392938186,-63.37166587968658,35.905842293005264,-8.29696754180998,-0.17663931313245357
505,0.318800151348114,12.588502477228937,-4.434586099932921,38.33771208974267,-40.340428392938186,-63.08556355065865,35.7627911284913,-8.29696754180998,-0.1775498497809671
506,0.3193001449108124,12.588502477228937,-4.434586099932921,37.90855859620078,-40.340428392938186,-63.08556355065865,35.905842293005264,-8.29696754180998,-0.17846038642948064
507,0.31980016827583313,12.731553641742902,-4.434586099932921,37.765507431686814,-40.340428392938186,-63.08556355065865,35.7627911284913,-8.29696754180998,-0.1793709773509064
508,0.3203001618385315,12.731553641742902,-4.434586099932921,38.05160976071474,-40.340428392938186,-63.22861471517261,35.7627911284913,-8.29696754180998,-0.18028151399941994
509,0.32080015540122986,12.588502477228937,-4.434586099932921,38.05160976071474,-40.340428392938186,-63.37166587968658,35.905842293005264,-8.440018706323947,-0.18119205064793345
510,0.3213001489639282,12.731553641742902,-4.434586099932921,38.1946609252287,-40.340428392938186,-63.514717044200545,35.905842293005264,-8.29696754180998,-0.182102587296447
511,0.321800172328949,12.731553641742902,-4.434586099932921,38.33771208974267,-40.340428392938186,-63.514717044200545,35.905842293005264,-8.29696754180998,-0.18301317821787275
512,0.32230016589164734,12.731553641742902,-4.434586099932921,38.1946609252287,-40.340428392938186,-63.514717044200545,35.905842293005264,-8.29696754180998,-0.18392371486638628
513,0.3228001594543457,12.588502477228937,-4.291534935418956,37.90855859620078,-40.340428392938186,-63.65776820871451,35.905842293005264,-8.440018706323947,-0.18483425151489982
514,0.32330015301704407,12.731553641742902,-4.434586099932921,37.62245626717284,-40.48347955745215,-63.80081937322848,36.04889345751923,-8.29696754180998,-0.18576691824943772
515,0.32380014657974243,12.731553641742902,-4.291534935418956,37.47940510265888,-40.340428392938186,-63.80081937322848,36.04889345751923,-8.440018706323947,-0.18673277846422023
516,0.3243001699447632,12.731553641742902,-4.291534935418956,37.47940510265888,-40.340428392938186,-63.80081937322848,36.04889345751923,-8.440018706323947,-0.18769869624949892
517,0.32480016350746155,12.731553641742902,-4.434586099932921,37.62245626717284,-40.340428392938186,-63.80081937322848,36.04889345751923,-8.440018706323947,-0.18866455646428143
518,0.3253001570701599,12.731553641742902,-4.291534935418956,37.47940510265888,-40.340428392938186,-63.94387053774244,36.04889345751923,-8.440018706323947,-0.18963041667906394
519,0.3258001506328583,12.731553641742902,-4.434586099932921,37.33635393814492,-40.340428392938186,-63.94387053774244,36.04889345751923,-8.440018706323947,-0.19059627689384642
520,0.32630014419555664,12.731553641742902,-4.434586099932921,37.050251609116984,-40.340428392938186,-64.22997286677037,35.905842293005264,-8.440018706323947,-0.19156213710862893
521,0.3268001675605774,12.731553641742902,-4.434586099932921,36.76414928008906,-40.340428392938186,-64.37302403128433,36.04889345751923,-8.440018706323947,-0.19252805489390765
522,0.32730016112327576,12.731553641742902,-4.434586099932921,36.478046951061124,-40.340428392938186,-64.37302403128433,36.04889345751923,-8.440018706323947,-0.19349391510869013
523,0.3278001546859741,12.731553641742902,-4.291534935418956,36.478046951061124,-40.340428392938186,-64.37302403128433,36.04889345751923,-8.440018706323947,-0.19445977532347264
524,0.3283001482486725,12.731553641742902,-4.434586099932921,36.33499578654716,-40.340428392938186,-64.22997286677037,36.04889345751923,-8.440018706323947,-0.19542563553825515
525,0.32880017161369324,12.731553641742902,-4.291534935418956,36.33499578654716,-40.340428392938186,-64.22997286677037,35.905842293005264,-8.583069870837912,-0.19639155332353384
526,0.3293001651763916,12.731553641742902,-4.434586099932921,36.04889345751923,-40.340428392938186,-64.37302403128433,35.905842293005264,-8.583069870837912,-0.19735741353831635
527,0.32980015873908997,12.731553641742902,-4.434586099932921,35.905842293005264,-40.340428392938186,-64.37302403128433,36.19194462203319,-8.583069870837912,-0.19832327375309883
528,0.33030015230178833,12.731553641742902,-4.434586099932921,35.7627911284913,-40.340428392938186,-64.51607519579831,36.19194462203319,-8.583069870837912,-0.19928913396788134
529,0.3308001458644867,12.731553641742902,-4.434586099932921,35.7627911284913,-40.340428392938186,-64.51607519579831,36.19194462203319,-8.583069870837912,-0.20025499418266385
530,0.33130016922950745,12.731553641742902,-4.434586099932921,35.7627911284913,-40.340428392938186,-64.65912636031227,36.19194462203319,-8.583069870837912,-0.20122091196794253
531,0.3318001627922058,12.731553641742902,-4.434586099932921,35.7627911284913,-40.340428392938186,-64.65912636031227,36.04889345751923,-8.583069870837912,-0.20218677218272504
532,0.3323001563549042,12.731553641742902,-4.434586099932921,35.7627911284913,-40.340428392938186,-64.65912636031227,36.19194462203319,-8.583069870837912,-0.20315263239750755
533,0.33280014991760254,12.731553641742902,-4.434586099932921,35.7627911284913,-40.340428392938186,-64.80217752482623,36.19194462203319,-8.583069870837912,-0.20411849261229004
534,0.3333001434803009,12.731553641742902,-4.291534935418956,35.7627911284913,-40.340428392938186,-64.80217752482623,36.19194462203319,-8.583069870837912,-0.20508435282707255
535,0.33380016684532166,12.731553641742902,-4.434586099932921,35.7627911284913,-40.340428392938186,-64.9452286893402,36.33499578654716,-8.583069870837912,-0.20606579155537677
536,0.33430016040802,12.731553641742902,-4.434586099932921,35.7627911284913,-40.340428392938186,-64.51607519579831,36.19194462203319,-8.583069870837912,-0.20704717178810772
537,0.3348001539707184,12.731553641742902,-4.434586099932921,35.905842293005264,-40.340428392938186,-63.94387053774244,36.19194462203319,-8.583069870837912,-0.20802855202083867
538,0.33530014753341675,12.731553641742902,-4.434586099932921,35.7627911284913,-40.340428392938186,-63.94387053774244,36.19194462203319,-8.583069870837912,-0.20900993225356962
539,0.3358001708984375,12.731553641742902,-4.434586099932921,35.7627911284913,-40.340428392938186,-64.0869217022564,36.33499578654716,-8.440018706323947,-0.20999137098187384
540,0.33630016446113586,12.731553641742902,-4.434586099932921,35.47668879946337,-40.340428392938186,-64.22997286677037,36.478046951061124,-8.440018706323947,-0.2109727512146048
541,0.33680015802383423,12.731553641742902,-4.434586099932921,35.47668879946337,-40.340428392938186,-64.22997286677037,36.33499578654716,-8.440018706323947,-0.21195413144733574
542,0.3373001515865326,12.731553641742902,-4.434586099932921,35.333637634949405,-40.340428392938186,-64.22997286677037,36.19194462203319,-8.440018706323947,-0.2129355116800667
543,0.33780014514923096,12.731553641742902,-4.434586099932921,35.190586470435434,-40.340428392938186,-64.22997286677037,36.04889345751923,-8.440018706323947,-0.21391689191279767
544,0.3383001685142517,12.731553641742902,-4.434586099932921,35.04753530592147,-40.340428392938186,-64.22997286677037,35.905842293005264,-8.29696754180998,-0.21489833064110186
545,0.3388001620769501,12.588502477228937,-4.434586099932921,35.04753530592147,-40.197377228424216,-64.37302403128433,35.905842293005264,-8.29696754180998,-0.21587971087383284
546,0.33930015563964844,12.588502477228937,-4.434586099932921,34.90448414140751,-40.340428392938186,-64.22997286677037,35.7627911284913,-8.29696754180998,-0.2168610911065638
547,0.3398001492023468,12.588502477228937,-4.291534935418956,34.761432976893545,-40.340428392938186,-64.22997286677037,35.61973996397733,-8.440018706323947,-0.21784247133929474
548,0.34030014276504517,12.588502477228937,-4.291534935418956,34.761432976893545,-40.340428392938186,-63.80081937322848,35.61973996397733,-8.440018706323947,-0.2188238515720257
549,0.3408001661300659,12.588502477228937,-4.434586099932921,34.47533064786561,-40.197377228424216,-63.65776820871451,35.61973996397733,-8.440018706323947,-0.21980529030032991
550,0.3413001596927643,12.588502477228937,-4.291534935418956,34.33227948335165,-40.340428392938186,-63.65776820871451,35.7627911284913,-8.583069870837912,-0.22078667053306086
551,0.34180015325546265,12.588502477228937,-4.434586099932921,34.18922831883768,-40.197377228424216,-63.94387053774244,35.905842293005264,-8.583069870837912,-0.2217680507657918
552,0.342300146818161,12.731553641742902,-4.291534935418956,34.18922831883768,-40.05432606391025,-63.80081937322848,35.905842293005264,-8.583069870837912,-0.22274943099852276
553,0.34280017018318176,12.731553641742902,-4.291534935418956,34.18922831883768,-40.197377228424216,-63.514717044200545,35.905842293005264,-8.583069870837912,-0.223730869726827
554,0.3433001637458801,12.731553641742902,-4.291534935418956,34.046177154323715,-40.197377228424216,-63.514717044200545,35.905842293005264,-8.583069870837912,-0.22471224995955794
555,0.3438001573085785,12.731553641742902,-4.291534935418956,33.76007482529579,-40.197377228424216,-63.65776820871451,36.04889345751923,-8.583069870837912,-0.2257456330974438
556,0.34430015087127686,12.731553641742902,-4.291534935418956,33.61702366078182,-40.197377228424216,-63.80081937322848,35.905842293005264,-8.726121035351877,-0.22677901623532964
557,0.3448001444339752,12.731553641742902,-4.291534935418956,33.473972496267855,-40.05432606391025,-63.80081937322848,36.04889345751923,-8.583069870837912,-0.2278123993732155
558,0.34530016779899597,12.731553641742902,-4.291534935418956,33.33092133175389,-40.197377228424216,-63.80081937322848,36.04889345751923,-8.726121035351877,-0.22884584410632922
559,0.34580016136169434,12.588502477228937,-4.291534935418956,33.18787016723992,-40.05432606391025,-63.80081937322848,36.19194462203319,-8.583069870837912,-0.22987922724421508
560,0.3463001549243927,12.588502477228937,-4.291534935418956,33.04481900272596,-40.05432606391025,-64.0869217022564,36.19194462203319,-8.726121035351877,-0.23091261038210092
561,0.34680014848709106,12.588502477228937,-4.291534935418956,32.75871667369803,-40.05432606391025,-64.0869217022564,36.19194462203319,-8.726121035351877,-0.2319459935199868
562,0.3473001718521118,12.588502477228937,-4.291534935418956,32.75871667369803,-40.05432606391025,-63.94387053774244,36.19194462203319,-8.726121035351877,-0.23297943825310052
563,0.3478001654148102,12.588502477228937,-4.291534935418956,32.61566550918406,-40.05432606391025,-63.80081937322848,36.19194462203319,-8.726121035351877,-0.23401282139098636
564,0.34830015897750854,12.588502477228937,-4.291534935418956,32.61566550918406,-40.05432606391025,-63.65776820871451,36.04889345751923,-8.726121035351877,-0.23504620452887223
565,0.3488001525402069,12.588502477228937,-4.291534935418956,32.61566550918406,-40.05432606391025,-63.65776820871451,36.19194462203319,-8.869172199865842,-0.23607958766675807
566,0.3493001461029053,12.588502477228937,-4.14848377090499,32.61566550918406,-40.197377228424216,-63.65776820871451,36.19194462203319,-8.869172199865842,-0.23711297080464394
567,0.349800169467926,12.588502477228937,-4.14848377090499,32.4726143446701,-40.05432606391025,-63.65776820871451,36.04889345751923,-8.726121035351877,-0.23814641553775767
568,0.3503001630306244,12.588502477228937,-4.14848377090499,32.186512015642165,-40.05432606391025,-63.65776820871451,36.04889345751923,-8.726121035351877,-0.2391797986756435
569,0.35080015659332275,12.588502477228937,-4.14848377090499,32.186512015642165,-40.05432606391025,-63.65776820871451,36.04889345751923,-8.869172199865842,-0.24021318181352938
570,0.3513001501560211,12.588502477228937,-4.291534935418956,32.186512015642165,-40.05432606391025,-63.514717044200545,36.04889345751923,-8.726121035351877,-0.24124656495141522
571,0.3518001437187195,12.588502477228937,-4.14848377090499,32.0434608511282,-40.05432606391025,-63.514717044200545,36.19194462203319,-8.869172199865842,-0.2422799480893011
572,0.35230016708374023,12.588502477228937,-4.14848377090499,31.90040968661424,-40.05432606391025,-63.514717044200545,36.19194462203319,-8.726121035351877,-0.2433133928224148
573,0.3528001606464386,12.588502477228937,-4.14848377090499,31.757358522100272,-39.91127489939629,-63.514717044200545,36.04889345751923,-8.726121035351877,-0.24434677596030066
574,0.35330015420913696,12.588502477228937,-4.14848377090499,31.471256193072342,-39.91127489939629,-63.514717044200545,36.04889345751923,-8.583069870837912,-0.24545226451729016
575,0.3538001477718353,12.588502477228937,-4.14848377090499,31.185153864044413,-39.91127489939629,-63.65776820871451,36.04889345751923,-8.583069870837912,-0.24657577674296488
576,0.3543001711368561,12.588502477228937,-4.14848377090499,31.328205028558376,-39.91127489939629,-63.65776820871451,36.04889345751923,-8.583069870837912,-0.2476993559360489
577,0.35480016469955444,12.588502477228937,-4.14848377090499,31.328205028558376,-39.768223734882326,-63.80081937322848,36.04889345751923,-8.440018706323947,-0.2488228681617236
578,0.3553001582622528,12.588502477228937,-4.291534935418956,31.185153864044413,-39.768223734882326,-63.80081937322848,36.04889345751923,-8.583069870837912,-0.24994638038739833
579,0.35580015182495117,12.588502477228937,-4.14848377090499,30.899051535016483,-39.91127489939629,-63.94387053774244,36.04889345751923,-8.583069870837912,-0.25106989261307305
580,0.35630014538764954,12.588502477228937,-4.14848377090499,30.756000370502516,-39.768223734882326,-64.22997286677037,36.19194462203319,-8.583069870837912,-0.25219340483874775
581,0.3568001687526703,12.588502477228937,-4.14848377090499,30.61294920598855,-39.768223734882326,-64.37302403128433,36.19194462203319,-8.583069870837912,-0.2533169840318318
582,0.35730016231536865,12.588502477228937,-4.14848377090499,30.61294920598855,-39.768223734882326,-64.51607519579831,36.19194462203319,-8.583069870837912,-0.2544404962575065
583,0.357800155878067,12.588502477228937,-4.14848377090499,30.469898041474586,-39.768223734882326,-64.65912636031227,36.19194462203319,-8.440018706323947,-0.25556400848318117
584,0.3583001494407654,12.588502477228937,-4.14848377090499,30.469898041474586,-39.768223734882326,-64.80217752482623,36.19194462203319,-8.583069870837912,-0.2566875207088559
585,0.35880014300346375,12.588502477228937,-4.005432606391025,30.32684687696062,-39.768223734882326,-64.9452286893402,36.19194462203319,-8.440018706323947,-0.2578110329345306
586,0.3593001663684845,12.588502477228937,-4.14848377090499,30.183795712446656,-39.768223734882326,-64.9452286893402,36.33499578654716,-8.440018706323947,-0.25893461212761465
587,0.35980015993118286,12.588502477228937,-4.14848377090499,30.183795712446656,-39.625172570368356,-65.08827985385416,36.33499578654716,-8.440018706323947,-0.26005812435328934
588,0.36040017008781433,12.588502477228937,-4.14848377090499,30.04074454793269,-39.625172570368356,-65.08827985385416,36.19194462203319,-8.440018706323947,-0.26140637920454457
589,0.3609001636505127,12.588502477228937,-4.14848377090499,30.183795712446656,-39.625172570368356,-65.23133101836812,36.19194462203319,-8.29696754180998,-0.26252989143021926
590,0.36140015721321106,12.588502477228937,-4.005432606391025,30.32684687696062,-39.625172570368356,-65.23133101836812,36.04889345751923,-8.440018706323947,-0.263653403655894
591,0.3619001507759094,12.445451312714972,-4.005432606391025,30.32684687696062,-39.625172570368356,-65.08827985385416,36.04889345751923,-8.440018706323947,-0.2647769158815687
592,0.3624001443386078,12.445451312714972,-4.14848377090499,30.32684687696062,-39.625172570368356,-64.9452286893402,36.04889345751923,-8.583069870837912,-0.26590042810724346
593,0.36290016770362854,12.445451312714972,-4.005432606391025,30.183795712446656,-39.625172570368356,-64.9452286893402,36.19194462203319,-8.440018706323947,-0.26702400730032744
594,0.3634001612663269,12.445451312714972,-4.14848377090499,30.04074454793269,-39.625172570368356,-64.9452286893402,36.19194462203319,-8.440018706323947,-0.26818834730674335
595,0.36390015482902527,12.445451312714972,-4.14848377090499,29.897693383418726,-39.625172570368356,-64.9452286893402,36.19194462203319,-8.583069870837912,-0.26935268731315926
596,0.36440014839172363,12.445451312714972,-4.14848377090499,29.897693383418726,-39.625172570368356,-64.65912636031227,36.19194462203319,-8.583069870837912,-0.27051702731957517
597,0.3649001717567444,12.445451312714972,-4.14848377090499,29.897693383418726,-39.625172570368356,-64.51607519579831,36.19194462203319,-8.440018706323947,-0.2716814367269571
598,0.36540016531944275,12.445451312714972,-4.14848377090499,30.183795712446656,-39.625172570368356,-64.37302403128433,36.33499578654716,-8.583069870837912,-0.272845776733373
599,0.3659001588821411,12.445451312714972,-4.14848377090499,30.469898041474586,-39.625172570368356,-64.37302403128433,36.19194462203319,-8.440018706323947,-0.2740101167397889
600,0.3664001524448395,12.445451312714972,-4.14848377090499,30.469898041474586,-39.625172570368356,-64.22997286677037,36.19194462203319,-8.440018706323947,-0.27517445674620483
601,0.36690014600753784,12.445451312714972,-4.14848377090499,30.469898041474586,-39.625172570368356,-63.80081937322848,36.19194462203319,-8.440018706323947,-0.27633879675262074
602,0.3674001693725586,12.445451312714972,-4.14848377090499,30.469898041474586,-39.768223734882326,-63.514717044200545,36.19194462203319,-8.583069870837912,-0.2775032061600026
603,0.36790016293525696,12.445451312714972,-4.005432606391025,30.469898041474586,-39.768223734882326,-63.514717044200545,36.19194462203319,-8.583069870837912,-0.27866754616641853
604,0.3684001564979553,12.445451312714972,-4.14848377090499,30.61294920598855,-39.768223734882326,-63.80081937322848,36.19194462203319,-8.583069870837912,-0.27983188617283444
605,0.3689001500606537,12.445451312714972,-4.005432606391025,30.756000370502516,-39.625172570368356,-63.65776820871451,35.905842293005264,-8.583069870837912,-0.28099622617925035
606,0.36940014362335205,12.445451312714972,-4.14848377090499,31.042102699530446,-39.625172570368356,-63.22861471517261,35.905842293005264,-8.583069870837912,-0.28216056618566626
607,0.3699001669883728,12.302400148201006,-4.005432606391025,31.614307357586306,-39.768223734882326,-62.65641005711675,35.905842293005264,-8.583069870837912,-0.2833249755930482
608,0.37040016055107117,12.302400148201006,-4.005432606391025,31.471256193072342,-39.768223734882326,-62.51335889260279,35.7627911284913,-8.583069870837912,-0.2844893155994641
609,0.37090015411376953,12.302400148201006,-4.14848377090499,31.185153864044413,-39.625172570368356,-62.51335889260279,35.7627911284913,-8.583069870837912,-0.28565365560588
610,0.3714001476764679,12.302400148201006,-4.005432606391025,31.185153864044413,-39.768223734882326,-62.51335889260279,35.7627911284913,-8.583069870837912,-0.28681799561229593
611,0.37190017104148865,12.302400148201006,-4.005432606391025,31.328205028558376,-39.768223734882326,-62.370307728088825,35.7627911284913,-8.726121035351877,-0.2879824050196778
612,0.372400164604187,12.302400148201006,-4.005432606391025,31.471256193072342,-39.768223734882326,-62.227256563574855,35.905842293005264,-8.726121035351877,-0.2891467450260937
613,0.3729001581668854,12.302400148201006,-4.005432606391025,31.328205028558376,-39.768223734882326,-62.370307728088825,35.905842293005264,-8.726121035351877,-0.29031108503250963
614,0.37340015172958374,12.302400148201006,-4.005432606391025,31.185153864044413,-39.91127489939629,-62.370307728088825,35.905842293005264,-8.726121035351877,-0.29149199097572775
615,0.3739001452922821,12.302400148201006,-4.005432606391025,31.042102699530446,-39.91127489939629,-62.51335889260279,35.905842293005264,-8.869172199865842,-0.2927391705415268
616,0.37440016865730286,12.302400148201006,-4.005432606391025,31.042102699530446,-39.91127489939629,-62.227256563574855,35.905842293005264,-9.012223364379807,-0.293986424445978
617,0.3749001622200012,12.302400148201006,-4.005432606391025,31.042102699530446,-39.91127489939629,-61.94115423454693,35.905842293005264,-9.012223364379807,-0.29523360401177706
618,0.3754001557826996,12.302400148201006,-4.005432606391025,31.042102699530446,-39.91127489939629,-62.08420539906089,35.905842293005264,-8.869172199865842,-0.2964807835775761
619,0.37590014934539795,12.15934898368704,-4.005432606391025,30.756000370502516,-39.91127489939629,-62.227256563574855,35.905842293005264,-9.012223364379807,-0.2977279631433752
620,0.3764001429080963,12.302400148201006,-4.005432606391025,30.756000370502516,-39.91127489939629,-62.370307728088825,35.905842293005264,-8.869172199865842,-0.2989751427091743
621,0.37690016627311707,12.15934898368704,-4.005432606391025,30.756000370502516,-39.768223734882326,-62.51335889260279,36.04889345751923,-8.869172199865842,-0.30022239661362543
622,0.37740015983581543,12.15934898368704,-4.005432606391025,30.899051535016483,-39.91127489939629,-62.370307728088825,35.905842293005264,-8.869172199865842,-0.3014695761794245
623,0.3779001533985138,12.15934898368704,-4.005432606391025,30.899051535016483,-39.91127489939629,-62.227256563574855,36.04889345751923,-8.583069870837912,-0.30271675574522355
624,0.37840014696121216,12.15934898368704,-4.005432606391025,31.042102699530446,-39.91127489939629,-62.227256563574855,35.905842293005264,-8.583069870837912,-0.30396393531102267
625,0.3789001703262329,12.15934898368704,-4.005432606391025,31.185153864044413,-39.91127489939629,-62.08420539906089,36.04889345751923,-8.583069870837912,-0.3052111892154738
626,0.3794001638889313,12.15934898368704,-4.005432606391025,31.185153864044413,-39.91127489939629,-62.08420539906089,36.04889345751923,-8.440018706323947,-0.30645836878127286
627,0.37990015745162964,12.15934898368704,-4.005432606391025,31.042102699530446,-39.91127489939629,-62.08420539906089,35.905842293005264,-8.440018706323947,-0.3077055483470719
628,0.380400151014328,12.016297819173076,-4.005432606391025,31.185153864044413,-39.91127489939629,-62.08420539906089,35.905842293005264,-8.29696754180998,-0.308952727912871
629,0.38090014457702637,12.15934898368704,-4.005432606391025,31.328205028558376,-39.91127489939629,-62.08420539906089,35.905842293005264,-8.29696754180998,-0.3101999074786701
630,0.3814001679420471,12.15934898368704,-4.005432606391025,31.614307357586306,-39.91127489939629,-61.94115423454693,35.905842293005264,-8.29696754180998,-0.31144716138312123
631,0.3819001615047455,12.15934898368704,-4.005432606391025,31.90040968661424,-39.91127489939629,-61.655051905518995,35.905842293005264,-8.153916377296015,-0.3126943409489203
632,0.38240015506744385,12.15934898368704,-4.14848377090499,31.90040968661424,-39.91127489939629,-61.51200074100503,35.905842293005264,-8.153916377296015,-0.31394152051471935
633,0.3829001486301422,12.016297819173076,-4.14848377090499,32.186512015642165,-39.91127489939629,-61.51200074100503,35.905842293005264,-8.153916377296015,-0.31518870008051847
634,0.38340017199516296,12.15934898368704,-4.005432606391025,32.186512015642165,-39.91127489939629,-61.655051905518995,35.905842293005264,-8.153916377296015,-0.3164359539849696
635,0.38390016555786133,12.016297819173076,-4.005432606391025,32.329563180156136,-40.05432606391025,-61.51200074100503,35.905842293005264,-8.153916377296015,-0.31779902595188364
636,0.3844001591205597,12.016297819173076,-4.005432606391025,32.61566550918406,-40.05432606391025,-61.2258984119771,36.04889345751923,-8.29696754180998,-0.3191620979187977
637,0.38490015268325806,12.016297819173076,-4.14848377090499,32.75871667369803,-40.05432606391025,-61.082847247463135,36.04889345751923,-8.29696754180998,-0.3205251698857117
638,0.3854001462459564,12.016297819173076,-4.005432606391025,32.75871667369803,-40.05432606391025,-60.79674491843521,35.905842293005264,-8.29696754180998,-0.32188824185262577
639,0.3859001696109772,12.016297819173076,-4.14848377090499,32.901767838211995,-40.05432606391025,-60.65369375392124,35.905842293005264,-8.153916377296015,-0.32325139506600625
640,0.38640016317367554,12.016297819173076,-4.14848377090499,32.901767838211995,-40.05432606391025,-60.510642589407276,35.905842293005264,-8.153916377296015,-0.3246144670329203
641,0.3869001567363739,12.016297819173076,-4.005432606391025,33.04481900272596,-40.05432606391025,-60.510642589407276,36.04889345751923,-8.153916377296015,-0.32597753899983434
642,0.38740015029907227,12.016297819173076,-4.14848377090499,33.18787016723992,-40.05432606391025,-60.22454026037934,35.905842293005264,-8.153916377296015,-0.3273406109667484
643,0.38790014386177063,12.016297819173076,-4.005432606391025,33.33092133175389,-39.91127489939629,-60.08148909586538,35.905842293005264,-8.153916377296015,-0.3287036829336624
644,0.3884001672267914,12.016297819173076,-4.14848377090499,33.33092133175389,-39.91127489939629,-59.938437931351416,35.905842293005264,-8.153916377296015,-0.33006683614704285
645,0.38890016078948975,12.016297819173076,-4.005432606391025,33.473972496267855,-39.91127489939629,-59.79538676683745,35.905842293005264,-8.01086521278205,-0.33142990811395695
646,0.3894001543521881,11.87324665465911,-4.14848377090499,33.61702366078182,-39.91127489939629,-59.50928443780952,35.905842293005264,-8.153916377296015,-0.332792980080871
647,0.3899001479148865,12.016297819173076,-4.14848377090499,33.90312598980975,-39.91127489939629,-59.366233273295556,35.905842293005264,-8.01086521278205,-0.33415605204778503
648,0.3904001712799072,12.016297819173076,-4.14848377090499,34.046177154323715,-39.91127489939629,-59.366233273295556,35.7627911284913,-8.01086521278205,-0.33551920526116547
649,0.3909001648426056,12.016297819173076,-4.14848377090499,34.33227948335165,-39.91127489939629,-59.50928443780952,35.7627911284913,-8.01086521278205,-0.3368822772280795
650,0.39140015840530396,11.87324665465911,-4.14848377090499,34.33227948335165,-39.91127489939629,-59.366233273295556,35.7627911284913,-8.01086521278205,-0.33824534919499355
651,0.3919001519680023,11.87324665465911,-4.14848377090499,34.47533064786561,-39.91127489939629,-59.223182108781586,35.61973996397733,-8.01086521278205,-0.3396084211619076
652,0.3924001455307007,11.87324665465911,-4.14848377090499,34.33227948335165,-39.91127489939629,-58.93707977975366,35.61973996397733,-7.867814048268086,-0.34097149312882163
653,0.39290016889572144,11.87324665465911,-4.14848377090499,34.33227948335165,-39.91127489939629,-58.93707977975366,35.7627911284913,-7.867814048268086,-0.3423346463422021
654,0.3934001624584198,11.87324665465911,-4.14848377090499,34.618381812379575,-39.768223734882326,-58.7940286152397,35.7627911284913,-7.867814048268086,-0.3437152604973268
655,0.39390015602111816,11.87324665465911,-4.14848377090499,35.04753530592147,-39.768223734882326,-58.7940286152397,35.7627911284913,-7.867814048268086,-0.3451221866277947
656,0.39440014958381653,11.87324665465911,-4.14848377090499,35.61973996397733,-39.768223734882326,-58.650977450725726,35.7627911284913,-7.867814048268086,-0.3465291127582626
657,0.3949001431465149,11.87324665465911,-4.14848377090499,36.19194462203319,-39.768223734882326,-58.50792628621176,35.7627911284913,-7.867814048268086,-0.34793603888873054
658,0.39540016651153564,11.87324665465911,-4.14848377090499,36.90720044460302,-39.768223734882326,-58.50792628621176,35.61973996397733,-7.724762883754121,-0.3493430488796103
659,0.395900160074234,11.87324665465911,-4.14848377090499,37.19330277363095,-39.625172570368356,-58.650977450725726,35.7627911284913,-7.724762883754121,-0.35074997501007826
660,0.3964001536369324,11.87324665465911,-4.14848377090499,37.19330277363095,-39.768223734882326,-58.650977450725726,35.7627911284913,-7.724762883754121,-0.35215690114054615
661,0.39690014719963074,11.87324665465911,-4.291534935418956,37.050251609116984,-39.625172570368356,-58.3648751216978,35.61973996397733,-7.724762883754121,-0.35356382727101404
662,0.3974001705646515,11.730195490145146,-4.14848377090499,36.90720044460302,-39.625172570368356,-57.9357216281559,35.7627911284913,-7.867814048268086,-0.3549708372618939
663,0.39790016412734985,11.87324665465911,-4.14848377090499,36.76414928008906,-39.625172570368356,-57.50656813461401,35.7627911284913,-7.867814048268086,-0.35637776339236177
664,0.3984001576900482,11.730195490145146,-4.14848377090499,36.62109811557509,-39.625172570368356,-57.50656813461401,35.61973996397733,-7.867814048268086,-0.35778468952282966
665,0.3989001512527466,11.730195490145146,-4.14848377090499,36.478046951061124,-39.625172570368356,-57.363516970100044,35.61973996397733,-7.867814048268086,-0.3591916156532976
666,0.39940014481544495,11.730195490145146,-4.14848377090499,36.33499578654716,-39.625172570368356,-57.07741464107211,35.61973996397733,-7.867814048268086,-0.3605985417837655
667,0.3999001681804657,11.730195490145146,-4.14848377090499,36.33499578654716,-39.625172570368356,-56.93436347655815,35.61973996397733,-7.867814048268086,-0.36200555177464533
668,0.40040016174316406,11.730195490145146,-4.291534935418956,36.19194462203319,-39.625172570368356,-56.791312312044184,35.61973996397733,-7.724762883754121,-0.3634124779051132
669,0.4009001553058624,11.730195490145146,-4.14848377090499,36.04889345751923,-39.768223734882326,-56.648261147530214,35.61973996397733,-7.867814048268086,-0.3648194040355811
670,0.4014001488685608,11.730195490145146,-4.14848377090499,35.905842293005264,-39.768223734882326,-56.36215881850229,35.61973996397733,-7.724762883754121,-0.366226330166049
671,0.40190017223358154,11.730195490145146,-4.14848377090499,35.905842293005264,-39.768223734882326,-56.21910765398832,35.61973996397733,-7.581711719240155,-0.36763334015692883
672,0.4024001657962799,11.730195490145146,-4.14848377090499,36.04889345751923,-39.625172570368356,-56.076056489474354,35.61973996397733,-7.581711719240155,-0.3690402662873967
673,0.40290015935897827,11.730195490145146,-4.14848377090499,36.04889345751923,-39.625172570368356,-55.93300532496039,35.61973996397733,-7.724762883754121,-0.37044719241786467
674,0.40340015292167664,11.730195490145146,-4.291534935418956,36.04889345751923,-39.625172570368356,-55.78995416044643,35.61973996397733,-7.724762883754121,-0.37185411854833256
675,0.403900146484375,11.730195490145146,-4.291534935418956,35.905842293005264,-39.625172570368356,-55.503851831418494,35.61973996397733,-7.724762883754121,-0.37333922855057494
676,0.40440016984939575,11.730195490145146,-4.291534935418956,35.7627911284913,-39.625172570368356,-55.36080066690453,35.61973996397733,-7.724762883754121,-0.3748244270734111
677,0.4049001634120941,11.587144325631181,-4.291534935418956,35.61973996397733,-39.625172570368356,-55.36080066690453,35.61973996397733,-7.581711719240155,-0.37630953707565346
678,0.4054001569747925,11.587144325631181,-4.291534935418956,35.333637634949405,-39.625172570368356,-55.36080066690453,35.61973996397733,-7.43866055472619,-0.37779464707789584
679,0.40590015053749084,11.587144325631181,-4.291534935418956,35.333637634949405,-39.625172570368356,-55.36080066690453,35.61973996397733,-7.295609390212225,-0.3792797570801382
680,0.4064001441001892,11.587144325631181,-4.291534935418956,35.190586470435434,-39.625172570368356,-55.503851831418494,35.61973996397733,-7.295609390212225,-0.38076486708238055
681,0.40690016746520996,11.587144325631181,-4.291534935418956,35.04753530592147,-39.625172570368356,-55.64690299593246,35.61973996397733,-7.295609390212225,-0.38225006560521674
682,0.4074001610279083,11.587144325631181,-4.291534935418956,35.04753530592147,-39.625172570368356,-55.503851831418494,35.61973996397733,-7.295609390212225,-0.3837351756074591
683,0.4079001545906067,11.587144325631181,-4.291534935418956,34.90448414140751,-39.625172570368356,-55.503851831418494,35.61973996397733,-7.295609390212225,-0.3852202856097015
