,Time,lhl,lhm,lvl,lrf,lgl,lgm,lta,ShankSagittal
0,0.06945004314184189,2.5749209612513733,11.444093161117216,2.4318697967374083,4.005432606391025,-7.152558225698259,-31.042102699530446,-4.577637264446886,0.03685706775917029
1,0.06995004415512085,2.7179721257653386,11.587144325631181,2.4318697967374083,4.14848377090499,-7.43866055472619,-30.899051535016483,-4.577637264446886,0.03649856645754676
2,0.07045004516839981,2.5749209612513733,11.587144325631181,2.5749209612513733,4.005432606391025,-7.581711719240155,-30.899051535016483,-4.577637264446886,0.036140065155923225
3,0.07095004618167877,2.5749209612513733,11.587144325631181,2.5749209612513733,4.005432606391025,-7.43866055472619,-30.899051535016483,-4.434586099932921,0.035781563854299696
4,0.07145004719495773,2.4318697967374083,11.587144325631181,2.5749209612513733,4.005432606391025,-7.295609390212225,-30.899051535016483,-4.434586099932921,0.03542306255267616
5,0.0719500407576561,2.4318697967374083,11.730195490145146,2.5749209612513733,4.14848377090499,-7.152558225698259,-30.899051535016483,-4.434586099932921,0.03506456659312748
6,0.07245004177093506,2.288818632223443,11.730195490145146,2.7179721257653386,4.005432606391025,-7.152558225698259,-31.042102699530446,-4.434586099932921,0.034706065291503954
7,0.07295004278421402,2.288818632223443,11.587144325631181,2.5749209612513733,4.14848377090499,-7.152558225698259,-31.042102699530446,-4.434586099932921,0.034347563989880425
8,0.07345004379749298,2.4318697967374083,11.730195490145146,2.5749209612513733,4.14848377090499,-7.152558225698259,-31.185153864044413,-4.434586099932921,0.03398906268825689
9,0.07405004650354385,2.4318697967374083,11.587144325631181,2.5749209612513733,4.005432606391025,-7.152558225698259,-31.185153864044413,-4.434586099932921,0.03355886005789368
10,0.07455004751682281,2.4318697967374083,11.587144325631181,2.5749209612513733,4.14848377090499,-7.152558225698259,-31.185153864044413,-4.434586099932921,0.03320035875627015
11,0.07505004107952118,2.4318697967374083,11.587144325631181,2.5749209612513733,4.14848377090499,-7.152558225698259,-31.185153864044413,-4.434586099932921,0.03284186279672147
12,0.07555004209280014,2.4318697967374083,11.587144325631181,2.5749209612513733,4.14848377090499,-7.152558225698259,-31.042102699530446,-4.434586099932921,0.03248336149509794
13,0.0760500431060791,2.4318697967374083,11.587144325631181,2.5749209612513733,4.14848377090499,-7.295609390212225,-31.042102699530446,-4.434586099932921,0.03212486019347441
14,0.07655004411935806,2.4318697967374083,11.587144325631181,2.5749209612513733,4.14848377090499,-7.295609390212225,-31.042102699530446,-4.434586099932921,0.03180518491271198
15,0.07705004513263702,2.4318697967374083,11.587144325631181,2.5749209612513733,4.14848377090499,-7.152558225698259,-30.899051535016483,-4.434586099932921,0.03151139428869849
16,0.07755004614591599,2.4318697967374083,11.587144325631181,2.5749209612513733,4.14848377090499,-7.152558225698259,-31.042102699530446,-4.434586099932921,0.031217603664684988
17,0.07805004715919495,2.4318697967374083,11.587144325631181,2.5749209612513733,4.14848377090499,-7.152558225698259,-31.042102699530446,-4.434586099932921,0.030923813040671492
18,0.07855004072189331,2.4318697967374083,11.587144325631181,2.5749209612513733,4.14848377090499,-7.152558225698259,-31.042102699530446,-4.434586099932921,0.03063002679447057
19,0.07905004173517227,2.4318697967374083,11.587144325631181,2.5749209612513733,4.14848377090499,-7.152558225698259,-31.185153864044413,-4.434586099932921,0.03033623617045707
20,0.07955004274845123,2.4318697967374083,11.587144325631181,2.5749209612513733,4.14848377090499,-7.152558225698259,-31.042102699530446,-4.434586099932921,0.030042445546443575
21,0.0800500437617302,2.4318697967374083,11.587144325631181,2.5749209612513733,4.14848377090499,-7.152558225698259,-31.042102699530446,-4.291534935418956,0.02974865492243008
22,0.08055004477500916,2.4318697967374083,11.587144325631181,2.4318697967374083,4.14848377090499,-7.152558225698259,-31.042102699530446,-4.291534935418956,0.02945486429841658
23,0.08105004578828812,2.5749209612513733,11.587144325631181,2.7179721257653386,4.14848377090499,-7.009507061184294,-31.042102699530446,-4.291534935418956,0.029161073674403085
24,0.08155004680156708,2.4318697967374083,11.587144325631181,2.5749209612513733,4.14848377090499,-7.009507061184294,-31.185153864044413,-4.291534935418956,0.02886728305038959
25,0.08205004781484604,2.4318697967374083,11.587144325631181,2.5749209612513733,4.14848377090499,-6.866455896670329,-31.471256193072342,-4.291534935418956,0.02857349242637609
26,0.0825500413775444,2.4318697967374083,11.730195490145146,2.5749209612513733,4.005432606391025,-6.723404732156364,-31.614307357586306,-4.291534935418956,0.028279706180175168
27,0.08305004239082336,2.4318697967374083,11.587144325631181,2.5749209612513733,4.14848377090499,-6.5803535676423985,-31.90040968661424,-4.291534935418956,0.027985915556161672
28,0.08355004340410233,2.4318697967374083,11.730195490145146,2.5749209612513733,4.14848377090499,-6.5803535676423985,-31.614307357586306,-4.291534935418956,0.027692124932148173
29,0.08405004441738129,2.5749209612513733,11.587144325631181,2.5749209612513733,4.14848377090499,-6.866455896670329,-31.185153864044413,-4.291534935418956,0.027398334308134677
30,0.08455004543066025,2.5749209612513733,11.587144325631181,2.5749209612513733,4.14848377090499,-6.866455896670329,-30.899051535016483,-4.291534935418956,0.027104543684121178
31,0.08505004644393921,2.5749209612513733,11.587144325631181,2.5749209612513733,4.14848377090499,-7.009507061184294,-30.899051535016483,-4.291534935418956,0.026810753060107682
32,0.08555004745721817,2.4318697967374083,11.444093161117216,2.5749209612513733,4.14848377090499,-7.009507061184294,-30.899051535016483,-4.14848377090499,0.026516962436094187
33,0.08605004101991653,2.4318697967374083,11.444093161117216,2.5749209612513733,4.14848377090499,-7.152558225698259,-30.899051535016483,-4.291534935418956,0.02622317618989326
34,0.0865500420331955,2.4318697967374083,11.444093161117216,2.5749209612513733,4.14848377090499,-7.152558225698259,-31.185153864044413,-4.291534935418956,0.025892817899748916
35,0.08705004304647446,2.4318697967374083,11.587144325631181,2.5749209612513733,4.14848377090499,-7.009507061184294,-31.328205028558376,-4.14848377090499,0.025553317522790102
36,0.08755004405975342,2.4318697967374083,11.587144325631181,2.5749209612513733,4.14848377090499,-6.866455896670329,-31.328205028558376,-4.291534935418956,0.025213817145831284
37,0.08805004507303238,2.4318697967374083,11.587144325631181,2.5749209612513733,4.14848377090499,-7.009507061184294,-31.328205028558376,-4.14848377090499,0.02487431676887247
38,0.08855004608631134,2.4318697967374083,11.587144325631181,2.5749209612513733,4.14848377090499,-6.866455896670329,-31.185153864044413,-4.14848377090499,0.024534816391913655
39,0.0890500470995903,2.4318697967374083,11.587144325631181,2.5749209612513733,4.14848377090499,-6.866455896670329,-31.042102699530446,-4.291534935418956,0.02419531601495484
40,0.08955004066228867,2.4318697967374083,11.730195490145146,2.5749209612513733,4.14848377090499,-6.866455896670329,-30.61294920598855,-4.291534935418956,0.023855820696935617
41,0.09005004167556763,2.4318697967374083,11.587144325631181,2.5749209612513733,4.14848377090499,-6.866455896670329,-30.32684687696062,-4.434586099932921,0.023516320319976802
42,0.09055004268884659,2.4318697967374083,11.730195490145146,2.5749209612513733,4.14848377090499,-6.866455896670329,-30.183795712446656,-4.434586099932921,0.023176819943017988
43,0.09105004370212555,2.4318697967374083,11.730195490145146,2.5749209612513733,4.14848377090499,-7.009507061184294,-30.183795712446656,-4.434586099932921,0.022837319566059174
44,0.09155004471540451,2.4318697967374083,11.730195490145146,2.5749209612513733,4.14848377090499,-7.009507061184294,-30.32684687696062,-4.577637264446886,0.02249781918910036
45,0.09205004572868347,2.4318697967374083,11.730195490145146,2.5749209612513733,4.14848377090499,-7.009507061184294,-30.61294920598855,-4.434586099932921,0.022158318812141545
46,0.09255004674196243,2.4318697967374083,11.730195490145146,2.5749209612513733,4.14848377090499,-6.866455896670329,-30.756000370502516,-4.434586099932921,0.02181881843518273
47,0.0930500477552414,2.4318697967374083,11.730195490145146,2.5749209612513733,4.14848377090499,-6.866455896670329,-30.756000370502516,-4.434586099932921,0.021479318058223916
48,0.09355004131793976,2.5749209612513733,11.587144325631181,2.5749209612513733,4.14848377090499,-6.723404732156364,-30.899051535016483,-4.434586099932921,0.021139822740204692
49,0.09405004233121872,2.4318697967374083,11.587144325631181,2.5749209612513733,4.14848377090499,-7.009507061184294,-30.756000370502516,-4.434586099932921,0.020800322363245877
50,0.09455004334449768,2.4318697967374083,11.444093161117216,2.7179721257653386,4.14848377090499,-7.009507061184294,-30.61294920598855,-4.434586099932921,0.020460821986287063
51,0.09505004435777664,2.4318697967374083,11.444093161117216,2.5749209612513733,4.14848377090499,-7.009507061184294,-30.32684687696062,-4.434586099932921,0.02012132160932825
52,0.0955500453710556,2.4318697967374083,11.444093161117216,2.5749209612513733,4.14848377090499,-7.152558225698259,-30.183795712446656,-4.577637264446886,0.019781821232369434
53,0.09605004638433456,2.4318697967374083,11.587144325631181,2.5749209612513733,4.14848377090499,-7.009507061184294,-30.32684687696062,-4.434586099932921,0.01944232085541062
54,0.09655004739761353,2.4318697967374083,11.587144325631181,2.5749209612513733,4.14848377090499,-7.009507061184294,-30.469898041474586,-4.434586099932921,0.019064260117911083
55,0.09705004096031189,2.4318697967374083,11.587144325631181,2.5749209612513733,4.14848377090499,-7.009507061184294,-30.756000370502516,-4.434586099932921,0.018676565785677012
56,0.09755004197359085,2.288818632223443,11.587144325631181,2.5749209612513733,4.14848377090499,-7.009507061184294,-30.899051535016483,-4.434586099932921,0.018288865676272824
57,0.09805004298686981,2.4318697967374083,11.730195490145146,2.5749209612513733,4.14848377090499,-7.009507061184294,-30.899051535016483,-4.434586099932921,0.01790116556686864
58,0.09855004400014877,2.4318697967374083,11.587144325631181,2.5749209612513733,4.14848377090499,-7.152558225698259,-30.899051535016483,-4.434586099932921,0.01751346545746445
59,0.09905004501342773,2.4318697967374083,11.587144325631181,2.5749209612513733,4.14848377090499,-7.152558225698259,-30.899051535016483,-4.434586099932921,0.017125765348060262
60,0.0995500460267067,2.4318697967374083,11.587144325631181,2.7179721257653386,4.14848377090499,-7.009507061184294,-30.756000370502516,-4.434586099932921,0.016738065238656074
61,0.10005004703998566,2.4318697967374083,11.587144325631181,2.5749209612513733,4.14848377090499,-7.009507061184294,-30.61294920598855,-4.434586099932921,0.016350365129251886
62,0.10055004060268402,2.4318697967374083,11.587144325631181,2.5749209612513733,4.14848377090499,-7.009507061184294,-30.183795712446656,-4.434586099932921,0.015962670797017818
63,0.10105004161596298,2.4318697967374083,11.587144325631181,2.5749209612513733,4.14848377090499,-6.866455896670329,-30.04074454793269,-4.434586099932921,0.015574970687613628
64,0.10155004262924194,2.4318697967374083,11.587144325631181,2.5749209612513733,4.14848377090499,-6.866455896670329,-29.897693383418726,-4.434586099932921,0.015187270578209441
65,0.1020500436425209,2.5749209612513733,11.587144325631181,2.5749209612513733,4.14848377090499,-6.866455896670329,-30.04074454793269,-4.434586099932921,0.014799570468805253
66,0.10255004465579987,2.5749209612513733,11.587144325631181,2.4318697967374083,4.14848377090499,-6.723404732156364,-30.32684687696062,-4.434586099932921,0.014411870359401065
67,0.10305004566907883,2.5749209612513733,11.587144325631181,2.5749209612513733,4.14848377090499,-6.5803535676423985,-30.756000370502516,-4.434586099932921,0.014024170249996876
68,0.10355004668235779,2.4318697967374083,11.587144325631181,2.4318697967374083,4.291534935418956,-6.5803535676423985,-31.185153864044413,-4.291534935418956,0.01363647014059269
69,0.10405004769563675,2.5749209612513733,11.587144325631181,2.4318697967374083,4.14848377090499,-6.5803535676423985,-31.614307357586306,-4.291534935418956,0.013248770031188503
70,0.10455004125833511,2.5749209612513733,11.587144325631181,2.4318697967374083,4.291534935418956,-6.437302403128434,-31.757358522100272,-4.291534935418956,0.012861075698954432
71,0.10505004227161407,2.5749209612513733,11.587144325631181,2.5749209612513733,4.291534935418956,-6.5803535676423985,-31.614307357586306,-4.291534935418956,0.012473375589550244
72,0.10555004328489304,2.5749209612513733,11.587144325631181,2.5749209612513733,4.291534935418956,-6.5803535676423985,-31.471256193072342,-4.434586099932921,0.012085675480146055
73,0.106050044298172,2.5749209612513733,11.587144325631181,2.5749209612513733,4.291534935418956,-6.723404732156364,-31.328205028558376,-4.434586099932921,0.011697975370741867
74,0.10655004531145096,2.5749209612513733,11.587144325631181,2.5749209612513733,4.291534935418956,-6.723404732156364,-31.328205028558376,-4.577637264446886,0.011306109442488497
75,0.10705004632472992,2.5749209612513733,11.444093161117216,2.5749209612513733,4.291534935418956,-6.866455896670329,-31.471256193072342,-4.434586099932921,0.010907994941147567
76,0.10755004733800888,2.5749209612513733,11.444093161117216,2.5749209612513733,4.291534935418956,-6.866455896670329,-31.328205028558376,-4.577637264446886,0.010509880439806637
77,0.10805004090070724,2.5749209612513733,11.587144325631181,2.5749209612513733,4.291534935418956,-6.866455896670329,-31.042102699530446,-4.577637264446886,0.010111771870822042
78,0.1085500419139862,2.7179721257653386,11.587144325631181,2.7179721257653386,4.291534935418956,-6.866455896670329,-30.756000370502516,-4.577637264446886,0.009713657369481111
79,0.10905004292726517,2.7179721257653386,11.444093161117216,2.7179721257653386,4.291534935418956,-6.866455896670329,-30.32684687696062,-4.577637264446886,0.00931554286814018
80,0.10955004394054413,2.7179721257653386,11.444093161117216,2.5749209612513733,4.291534935418956,-6.866455896670329,-30.183795712446656,-4.577637264446886,0.00891742836679925
81,0.11005004495382309,2.7179721257653386,11.444093161117216,2.5749209612513733,4.291534935418956,-6.866455896670329,-30.183795712446656,-4.720688428960852,0.00851931386545832
82,0.11055004596710205,2.7179721257653386,11.587144325631181,2.7179721257653386,4.291534935418956,-6.866455896670329,-30.32684687696062,-4.720688428960852,0.008121199364117392
83,0.11105004698038101,2.5749209612513733,11.587144325631181,2.7179721257653386,4.291534935418956,-6.866455896670329,-30.469898041474586,-4.577637264446886,0.00772308486277646
84,0.11155004054307938,2.5749209612513733,11.730195490145146,2.7179721257653386,4.291534935418956,-6.866455896670329,-30.756000370502516,-4.577637264446886,0.007324976293791866
85,0.11205004155635834,2.5749209612513733,11.730195490145146,2.7179721257653386,4.291534935418956,-6.866455896670329,-30.756000370502516,-4.434586099932921,0.006926861792450936
86,0.1125500425696373,2.7179721257653386,11.730195490145146,2.7179721257653386,4.291534935418956,-6.866455896670329,-30.756000370502516,-4.577637264446886,0.006528747291110006
87,0.11305004358291626,2.7179721257653386,11.587144325631181,2.5749209612513733,4.291534935418956,-6.723404732156364,-30.32684687696062,-4.434586099932921,0.006130632789769075
88,0.11355004459619522,2.7179721257653386,11.730195490145146,2.5749209612513733,4.291534935418956,-6.866455896670329,-30.183795712446656,-4.577637264446886,0.005732518288428145
89,0.11405004560947418,2.7179721257653386,11.730195490145146,2.7179721257653386,4.291534935418956,-6.866455896670329,-30.04074454793269,-4.434586099932921,0.005334403787087215
90,0.11455004662275314,2.5749209612513733,11.730195490145146,2.5749209612513733,4.14848377090499,-6.866455896670329,-30.183795712446656,-4.434586099932921,0.004936289285746285
91,0.1150500476360321,2.5749209612513733,11.587144325631181,2.5749209612513733,4.291534935418956,-6.723404732156364,-30.469898041474586,-4.434586099932921,0.004538174784405355
92,0.11555004119873047,2.5749209612513733,11.444093161117216,2.5749209612513733,4.291534935418956,-6.723404732156364,-30.61294920598855,-4.291534935418956,0.004140066215420761
93,0.11605004221200943,2.4318697967374083,11.30104199660325,2.5749209612513733,4.291534935418956,-6.866455896670329,-30.899051535016483,-4.291534935418956,0.0037419517140798303
94,0.11655004322528839,2.288818632223443,11.444093161117216,2.5749209612513733,4.291534935418956,-6.866455896670329,-31.042102699530446,-4.291534935418956,0.0033847370679809374
95,0.11705004423856735,2.288818632223443,11.587144325631181,2.5749209612513733,4.291534935418956,-6.723404732156364,-30.899051535016483,-4.291534935418956,0.0030275224218820444
96,0.11755004525184631,2.145767467709478,11.730195490145146,2.5749209612513733,4.291534935418956,-6.866455896670329,-30.756000370502516,-4.291534935418956,0.0026703077757831515
97,0.11805004626512527,2.0027163031955126,11.87324665465911,2.5749209612513733,4.291534935418956,-6.723404732156364,-30.756000370502516,-4.291534935418956,0.0023130931296842586
98,0.11855004727840424,2.145767467709478,11.730195490145146,2.7179721257653386,4.291534935418956,-6.866455896670329,-30.899051535016483,-4.291534935418956,0.0019558784835853656
99,0.1190500408411026,2.288818632223443,11.730195490145146,2.7179721257653386,4.291534935418956,-6.866455896670329,-30.899051535016483,-4.291534935418956,0.0015986691603887076
100,0.11955004185438156,2.4318697967374083,11.730195490145146,2.7179721257653386,4.291534935418956,-6.723404732156364,-31.042102699530446,-4.14848377090499,0.0012414545142898146
101,0.12005004286766052,2.4318697967374083,11.730195490145146,2.7179721257653386,4.291534935418956,-6.723404732156364,-31.042102699530446,-4.14848377090499,0.0008842398681909213
102,0.12055004388093948,2.4318697967374083,11.587144325631181,2.7179721257653386,4.291534935418956,-6.5803535676423985,-31.185153864044413,-4.14848377090499,0.0005270252220920283
103,0.12105004489421844,2.4318697967374083,11.587144325631181,2.7179721257653386,4.291534935418956,-6.5803535676423985,-31.042102699530446,-4.005432606391025,0.0001698105759931354
104,0.1215500459074974,2.4318697967374083,11.587144325631181,2.7179721257653386,4.291534935418956,-6.723404732156364,-31.042102699530446,-4.005432606391025,-0.00018740407010575753
105,0.12205004692077637,2.4318697967374083,11.587144325631181,2.7179721257653386,4.291534935418956,-6.723404732156364,-31.042102699530446,-4.005432606391025,-0.0005446187162046505
106,0.12255004793405533,2.5749209612513733,11.587144325631181,2.7179721257653386,4.291534935418956,-6.723404732156364,-31.042102699530446,-4.005432606391025,-0.0009018333623035434
107,0.12305004149675369,2.5749209612513733,11.587144325631181,2.7179721257653386,4.291534935418956,-6.723404732156364,-31.042102699530446,-4.005432606391025,-0.001259042685500201
108,0.12355004251003265,2.4318697967374083,11.587144325631181,2.7179721257653386,4.291534935418956,-6.723404732156364,-31.042102699530446,-4.005432606391025,-0.001616257331599094
109,0.12405004352331161,2.5749209612513733,11.587144325631181,2.7179721257653386,4.291534935418956,-6.5803535676423985,-31.042102699530446,-4.005432606391025,-0.0019734719776979878
110,0.12455004453659058,2.4318697967374083,11.587144325631181,2.7179721257653386,4.434586099932921,-6.723404732156364,-31.042102699530446,-4.14848377090499,-0.0023306866237968807
111,0.12505003809928894,2.4318697967374083,11.587144325631181,2.7179721257653386,4.291534935418956,-6.723404732156364,-31.042102699530446,-4.14848377090499,-0.0026878959469935383
112,0.1255500465631485,2.5749209612513733,11.587144325631181,2.7179721257653386,4.291534935418956,-6.723404732156364,-30.899051535016483,-4.291534935418956,-0.0030451159159946666
113,0.12605004012584686,2.5749209612513733,11.587144325631181,2.861023290279304,4.291534935418956,-6.723404732156364,-30.899051535016483,-4.434586099932921,-0.003402325239191324
114,0.12655004858970642,2.5749209612513733,11.587144325631181,2.861023290279304,4.434586099932921,-6.723404732156364,-30.899051535016483,-4.434586099932921,-0.0037309635302412085
115,0.12705004215240479,2.5749209612513733,11.587144325631181,2.861023290279304,4.291534935418956,-6.723404732156364,-31.042102699530446,-4.577637264446886,-0.004059592027272584
116,0.12755005061626434,2.5749209612513733,11.587144325631181,2.861023290279304,4.291534935418956,-6.723404732156364,-30.899051535016483,-4.720688428960852,-0.004388230318322469
117,0.1280500441789627,2.5749209612513733,11.587144325631181,2.861023290279304,4.434586099932921,-6.723404732156364,-31.042102699530446,-4.577637264446886,-0.004716858815353845
118,0.12855003774166107,2.5749209612513733,11.444093161117216,2.861023290279304,4.291534935418956,-6.723404732156364,-31.042102699530446,-4.577637264446886,-0.005045487312385221
119,0.12905004620552063,2.5749209612513733,11.587144325631181,2.7179721257653386,4.291534935418956,-6.866455896670329,-30.899051535016483,-4.720688428960852,-0.005374125603435106
120,0.129550039768219,2.5749209612513733,11.587144325631181,2.7179721257653386,4.291534935418956,-6.723404732156364,-31.042102699530446,-4.577637264446886,-0.0057027541004664815
121,0.13005004823207855,2.7179721257653386,11.587144325631181,2.7179721257653386,4.291534935418956,-6.723404732156364,-30.899051535016483,-4.720688428960852,-0.006031392391516366
122,0.13055004179477692,2.4318697967374083,11.587144325631181,2.7179721257653386,4.291534935418956,-6.723404732156364,-30.899051535016483,-4.720688428960852,-0.006360020888547742
123,0.13105005025863647,2.5749209612513733,11.587144325631181,2.7179721257653386,4.291534935418956,-6.723404732156364,-30.899051535016483,-4.720688428960852,-0.006688659179597627
124,0.13155004382133484,2.5749209612513733,11.587144325631181,2.7179721257653386,4.291534935418956,-6.723404732156364,-30.899051535016483,-4.720688428960852,-0.007017287676629003
125,0.1320500373840332,2.5749209612513733,11.587144325631181,2.7179721257653386,4.291534935418956,-6.723404732156364,-30.899051535016483,-4.720688428960852,-0.007345916173660379
126,0.13255004584789276,2.5749209612513733,11.587144325631181,2.7179721257653386,4.291534935418956,-6.723404732156364,-30.899051535016483,-4.720688428960852,-0.007674554464710263
127,0.13305003941059113,2.5749209612513733,11.587144325631181,2.7179721257653386,4.434586099932921,-6.723404732156364,-30.899051535016483,-4.720688428960852,-0.008003182961741639
128,0.13355004787445068,2.5749209612513733,11.587144325631181,2.861023290279304,4.291534935418956,-6.723404732156364,-30.756000370502516,-4.720688428960852,-0.008331821252791523
129,0.13405004143714905,2.5749209612513733,11.730195490145146,2.861023290279304,4.291534935418956,-6.723404732156364,-30.61294920598855,-4.720688428960852,-0.0086604497498229
130,0.1345500499010086,2.5749209612513733,11.587144325631181,2.861023290279304,4.291534935418956,-6.5803535676423985,-30.469898041474586,-4.720688428960852,-0.008989088040872784
131,0.13505004346370697,2.5749209612513733,11.587144325631181,3.004074454793269,4.291534935418956,-6.723404732156364,-30.469898041474586,-4.577637264446886,-0.00931771653790416
132,0.13555003702640533,2.5749209612513733,11.587144325631181,3.1471256193072343,4.291534935418956,-6.5803535676423985,-30.469898041474586,-4.434586099932921,-0.009646345034935538
133,0.1360500454902649,2.5749209612513733,11.587144325631181,3.1471256193072343,4.291534935418956,-6.5803535676423985,-30.756000370502516,-4.434586099932921,-0.009974983325985422
134,0.13655003905296326,2.5749209612513733,11.730195490145146,3.1471256193072343,4.291534935418956,-6.723404732156364,-31.042102699530446,-4.434586099932921,-0.010327496195320586
135,0.13705004751682281,2.5749209612513733,11.587144325631181,3.1471256193072343,4.434586099932921,-6.723404732156364,-31.185153864044413,-4.434586099932921,-0.01068599106397557
136,0.13755004107952118,2.5749209612513733,11.587144325631181,3.1471256193072343,4.291534935418956,-6.866455896670329,-31.185153864044413,-4.291534935418956,-0.011044475248831755
137,0.13805004954338074,2.7179721257653386,11.444093161117216,3.1471256193072343,4.434586099932921,-7.009507061184294,-31.042102699530446,-4.434586099932921,-0.011402970117486737
138,0.1385500431060791,2.5749209612513733,11.30104199660325,3.004074454793269,4.434586099932921,-7.009507061184294,-30.899051535016483,-4.434586099932921,-0.011761454302342924
139,0.13905005156993866,2.7179721257653386,11.30104199660325,3.004074454793269,4.434586099932921,-7.009507061184294,-30.899051535016483,-4.434586099932921,-0.012119949170997906
140,0.13955004513263702,2.7179721257653386,11.30104199660325,3.1471256193072343,4.434586099932921,-6.866455896670329,-31.042102699530446,-4.434586099932921,-0.012478433355854092
141,0.1400500386953354,2.7179721257653386,11.30104199660325,3.1471256193072343,4.434586099932921,-6.866455896670329,-30.899051535016483,-4.291534935418956,-0.012836917540710278
142,0.14055004715919495,2.7179721257653386,11.444093161117216,3.004074454793269,4.434586099932921,-6.723404732156364,-31.042102699530446,-4.434586099932921,-0.01319541240936526
143,0.1410500407218933,2.7179721257653386,11.444093161117216,3.004074454793269,4.434586099932921,-6.723404732156364,-30.899051535016483,-4.434586099932921,-0.013553896594221446
144,0.14155004918575287,2.5749209612513733,11.587144325631181,3.004074454793269,4.434586099932921,-6.723404732156364,-30.899051535016483,-4.434586099932921,-0.013912391462876428
145,0.14205004274845123,2.7179721257653386,11.587144325631181,2.861023290279304,4.434586099932921,-6.723404732156364,-30.899051535016483,-4.434586099932921,-0.014270875647732613
146,0.1425500512123108,2.7179721257653386,11.587144325631181,2.861023290279304,4.434586099932921,-6.5803535676423985,-30.899051535016483,-4.434586099932921,-0.014629370516387597
147,0.14305004477500916,2.7179721257653386,11.444093161117216,2.7179721257653386,4.434586099932921,-6.437302403128434,-31.042102699530446,-4.434586099932921,-0.014987854701243784
148,0.14355003833770752,2.5749209612513733,11.587144325631181,2.5749209612513733,4.434586099932921,-6.294251238614469,-30.899051535016483,-4.434586099932921,-0.015346338886099969
149,0.14405004680156708,2.5749209612513733,11.587144325631181,2.4318697967374083,4.291534935418956,-6.294251238614469,-30.899051535016483,-4.434586099932921,-0.01570483375475495
150,0.14455004036426544,2.7179721257653386,11.444093161117216,2.288818632223443,4.291534935418956,-6.437302403128434,-30.899051535016483,-4.434586099932921,-0.016063317939611136
151,0.145050048828125,2.7179721257653386,11.444093161117216,2.145767467709478,4.291534935418956,-6.437302403128434,-30.899051535016483,-4.434586099932921,-0.016421812808266118
152,0.14555004239082336,2.7179721257653386,11.444093161117216,2.145767467709478,4.291534935418956,-6.5803535676423985,-30.899051535016483,-4.434586099932921,-0.016780296993122303
153,0.14605005085468292,2.7179721257653386,11.444093161117216,2.145767467709478,4.291534935418956,-6.5803535676423985,-31.042102699530446,-4.434586099932921,-0.01713879186177729
154,0.1465500444173813,2.7179721257653386,11.444093161117216,2.145767467709478,4.291534935418956,-6.437302403128434,-31.042102699530446,-4.434586099932921,-0.017512127463492157
155,0.14705003798007965,2.7179721257653386,11.444093161117216,2.288818632223443,4.291534935418956,-6.437302403128434,-31.185153864044413,-4.434586099932921,-0.017895363272114113
156,0.1475500464439392,2.7179721257653386,11.444093161117216,2.288818632223443,4.434586099932921,-6.437302403128434,-31.185153864044413,-4.291534935418956,-0.01827861050220024
157,0.14805004000663757,2.7179721257653386,11.444093161117216,2.288818632223443,4.434586099932921,-6.437302403128434,-31.328205028558376,-4.434586099932921,-0.018661846310822197
158,0.14855004847049713,2.7179721257653386,11.444093161117216,2.4318697967374083,4.434586099932921,-6.437302403128434,-31.471256193072342,-4.291534935418956,-0.01904509354090832
159,0.1491500437259674,2.7179721257653386,11.444093161117216,2.4318697967374083,4.434586099932921,-6.437302403128434,-31.614307357586306,-4.291534935418956,-0.019504978795547506
160,0.14965003728866577,2.861023290279304,11.444093161117216,2.4318697967374083,4.434586099932921,-6.437302403128434,-31.614307357586306,-4.291534935418956,-0.019888214604169462
161,0.15015004575252533,2.7179721257653386,11.587144325631181,2.5749209612513733,4.434586099932921,-6.294251238614469,-31.614307357586306,-4.291534935418956,-0.020271461834255586
162,0.1506500393152237,2.7179721257653386,11.444093161117216,2.4318697967374083,4.434586099932921,-6.294251238614469,-31.614307357586306,-4.291534935418956,-0.020654697642877546
163,0.15115004777908325,2.7179721257653386,11.444093161117216,2.5749209612513733,4.434586099932921,-6.294251238614469,-31.614307357586306,-4.291534935418956,-0.02103794487296367
164,0.15165004134178162,2.7179721257653386,11.444093161117216,2.5749209612513733,4.434586099932921,-6.437302403128434,-31.471256193072342,-4.291534935418956,-0.021421180681585626
165,0.15215004980564117,2.861023290279304,11.444093161117216,2.5749209612513733,4.434586099932921,-6.437302403128434,-31.185153864044413,-4.291534935418956,-0.021804427911671753
166,0.15265004336833954,2.861023290279304,11.444093161117216,2.5749209612513733,4.434586099932921,-6.437302403128434,-31.042102699530446,-4.291534935418956,-0.02218766372029371
167,0.1531500369310379,2.861023290279304,11.30104199660325,2.5749209612513733,4.434586099932921,-6.437302403128434,-30.899051535016483,-4.434586099932921,-0.022570899528915667
168,0.15365004539489746,3.004074454793269,11.30104199660325,2.5749209612513733,4.434586099932921,-6.5803535676423985,-30.61294920598855,-4.434586099932921,-0.022954146759001794
169,0.15415003895759583,3.1471256193072343,11.30104199660325,2.5749209612513733,4.434586099932921,-6.5803535676423985,-30.61294920598855,-4.434586099932921,-0.02333738256762375
170,0.15465004742145538,3.1471256193072343,11.30104199660325,2.5749209612513733,4.434586099932921,-6.437302403128434,-30.61294920598855,-4.291534935418956,-0.023720629797709874
171,0.15515004098415375,3.2901767838211993,11.30104199660325,2.5749209612513733,4.434586099932921,-6.5803535676423985,-30.61294920598855,-4.291534935418956,-0.024103865606331834
172,0.1556500494480133,3.2901767838211993,11.30104199660325,2.5749209612513733,4.434586099932921,-6.437302403128434,-30.469898041474586,-4.291534935418956,-0.024487112836417954
173,0.15615004301071167,3.4332279483351646,11.30104199660325,2.5749209612513733,4.434586099932921,-6.437302403128434,-30.32684687696062,-4.434586099932921,-0.024870348645039914
174,0.15665005147457123,3.4332279483351646,11.157990832089284,2.5749209612513733,4.434586099932921,-6.294251238614469,-30.183795712446656,-4.434586099932921,-0.02526264835750323
175,0.1571500450372696,3.4332279483351646,11.157990832089284,2.5749209612513733,4.434586099932921,-6.151200074100503,-30.61294920598855,-4.291534935418956,-0.02565493637872195
176,0.15765003859996796,3.2901767838211993,11.30104199660325,2.5749209612513733,4.434586099932921,-6.008148909586538,-31.328205028558376,-4.14848377090499,-0.026047224399940668
177,0.15815004706382751,3.1471256193072343,11.444093161117216,2.7179721257653386,4.434586099932921,-6.151200074100503,-31.471256193072342,-4.14848377090499,-0.026439524112403984
178,0.15865004062652588,3.004074454793269,11.444093161117216,2.7179721257653386,4.577637264446886,-6.151200074100503,-31.471256193072342,-4.005432606391025,-0.026831812133622703
179,0.15915004909038544,2.861023290279304,11.30104199660325,2.7179721257653386,4.577637264446886,-6.151200074100503,-31.185153864044413,-4.005432606391025,-0.02722411184608602
180,0.1596500426530838,2.7179721257653386,11.157990832089284,2.7179721257653386,4.434586099932921,-6.151200074100503,-30.899051535016483,-4.005432606391025,-0.027616399867304738
181,0.16015005111694336,2.4318697967374083,11.30104199660325,2.7179721257653386,4.434586099932921,-6.151200074100503,-30.32684687696062,-4.14848377090499,-0.028008699579768054
182,0.16065004467964172,2.145767467709478,11.730195490145146,2.7179721257653386,4.434586099932921,-6.294251238614469,-30.32684687696062,-4.14848377090499,-0.028400987600986773
183,0.1611500382423401,2.0027163031955126,12.016297819173076,2.5749209612513733,4.577637264446886,-6.151200074100503,-30.61294920598855,-4.14848377090499,-0.02879327562220549
184,0.16165004670619965,2.145767467709478,12.016297819173076,2.7179721257653386,4.577637264446886,-6.294251238614469,-30.899051535016483,-4.14848377090499,-0.029185575334668805
185,0.162150040268898,2.288818632223443,11.87324665465911,2.7179721257653386,4.577637264446886,-6.151200074100503,-31.185153864044413,-4.291534935418956,-0.029577863355887524
186,0.16265004873275757,2.5749209612513733,11.730195490145146,2.5749209612513733,4.577637264446886,-6.151200074100503,-31.328205028558376,-4.434586099932921,-0.02997016306835084
187,0.16315004229545593,2.5749209612513733,11.587144325631181,2.7179721257653386,4.434586099932921,-6.008148909586538,-31.328205028558376,-4.577637264446886,-0.03036245108956956
188,0.1636500507593155,2.7179721257653386,11.444093161117216,2.7179721257653386,4.577637264446886,-6.151200074100503,-31.185153864044413,-4.577637264446886,-0.030754750802032875
189,0.16415004432201385,2.7179721257653386,11.587144325631181,2.7179721257653386,4.577637264446886,-6.294251238614469,-30.756000370502516,-4.720688428960852,-0.031147038823251594
190,0.16465003788471222,2.7179721257653386,11.444093161117216,2.7179721257653386,4.577637264446886,-6.437302403128434,-30.61294920598855,-4.720688428960852,-0.03153932684447031
191,0.16515004634857178,2.861023290279304,11.444093161117216,2.7179721257653386,4.577637264446886,-6.294251238614469,-31.042102699530446,-4.720688428960852,-0.03193162655693363
192,0.16565003991127014,2.861023290279304,11.444093161117216,2.7179721257653386,4.577637264446886,-6.294251238614469,-31.614307357586306,-4.577637264446886,-0.03232391457815235
193,0.1661500483751297,2.861023290279304,11.444093161117216,2.7179721257653386,4.577637264446886,-6.151200074100503,-31.757358522100272,-4.577637264446886,-0.032716214290615664
194,0.16665004193782806,2.861023290279304,11.444093161117216,2.7179721257653386,4.577637264446886,-6.151200074100503,-31.614307357586306,-4.577637264446886,-0.03311166085428889
195,0.16715005040168762,2.7179721257653386,11.587144325631181,2.7179721257653386,4.577637264446886,-6.294251238614469,-31.185153864044413,-4.434586099932921,-0.03350711920333983
196,0.167650043964386,2.7179721257653386,11.730195490145146,2.5749209612513733,4.577637264446886,-6.294251238614469,-30.61294920598855,-4.434586099932921,-0.03390256576701306
197,0.16815003752708435,2.5749209612513733,11.730195490145146,2.7179721257653386,4.577637264446886,-6.294251238614469,-30.183795712446656,-4.434586099932921,-0.03429801233068629
198,0.1686500459909439,2.5749209612513733,11.587144325631181,2.7179721257653386,4.577637264446886,-6.437302403128434,-29.75464221890476,-4.434586099932921,-0.03469347067973723
199,0.16915003955364227,2.5749209612513733,11.444093161117216,2.7179721257653386,4.577637264446886,-6.5803535676423985,-29.75464221890476,-4.577637264446886,-0.035088917243410456
200,0.16965004801750183,2.5749209612513733,11.30104199660325,2.7179721257653386,4.577637264446886,-6.5803535676423985,-29.897693383418726,-4.577637264446886,-0.03548437559246139
201,0.1701500415802002,2.4318697967374083,11.30104199660325,2.7179721257653386,4.577637264446886,-6.5803535676423985,-30.183795712446656,-4.720688428960852,-0.035879822156134625
202,0.17065005004405975,2.4318697967374083,11.587144325631181,2.7179721257653386,4.577637264446886,-6.5803535676423985,-30.04074454793269,-4.720688428960852,-0.03627528050518556
203,0.17115004360675812,2.5749209612513733,11.587144325631181,2.7179721257653386,4.577637264446886,-6.5803535676423985,-29.897693383418726,-4.577637264446886,-0.03667072706885879
204,0.17165003716945648,2.5749209612513733,11.587144325631181,2.7179721257653386,4.577637264446886,-6.5803535676423985,-29.75464221890476,-4.434586099932921,-0.03706617363253202
205,0.17215004563331604,2.5749209612513733,11.444093161117216,2.7179721257653386,4.577637264446886,-6.5803535676423985,-30.04074454793269,-4.434586099932921,-0.037461631981582956
206,0.1726500391960144,2.7179721257653386,11.444093161117216,2.7179721257653386,4.577637264446886,-6.437302403128434,-30.469898041474586,-4.291534935418956,-0.03785707854525618
207,0.17315004765987396,2.5749209612513733,11.444093161117216,2.7179721257653386,4.577637264446886,-6.437302403128434,-31.185153864044413,-4.291534935418956,-0.038252536894307125
208,0.17365004122257233,2.5749209612513733,11.587144325631181,2.7179721257653386,4.577637264446886,-6.437302403128434,-32.0434608511282,-4.434586099932921,-0.03864798345798035
209,0.17415004968643188,2.5749209612513733,11.587144325631181,2.5749209612513733,4.577637264446886,-6.437302403128434,-32.61566550918406,-4.291534935418956,-0.03904344180703129
210,0.17465004324913025,2.5749209612513733,11.587144325631181,2.7179721257653386,4.577637264446886,-6.437302403128434,-32.61566550918406,-4.291534935418956,-0.03943888837070452
211,0.1751500368118286,2.7179721257653386,11.444093161117216,2.7179721257653386,4.577637264446886,-6.294251238614469,-32.186512015642165,-4.291534935418956,-0.03983433493437775
212,0.17565004527568817,2.7179721257653386,11.444093161117216,2.7179721257653386,4.577637264446886,-6.294251238614469,-31.90040968661424,-4.14848377090499,-0.04022979328342868
213,0.17615003883838654,2.861023290279304,11.444093161117216,2.7179721257653386,4.577637264446886,-6.151200074100503,-31.90040968661424,-4.291534935418956,-0.04062523984710191
214,0.1766500473022461,2.861023290279304,11.30104199660325,2.7179721257653386,4.577637264446886,-6.151200074100503,-31.614307357586306,-4.291534935418956,-0.0410237160214662
215,0.17715004086494446,2.861023290279304,11.30104199660325,2.7179721257653386,4.577637264446886,-6.437302403128434,-30.899051535016483,-4.434586099932921,-0.04142419214410054
216,0.17765004932880402,3.004074454793269,11.157990832089284,2.7179721257653386,4.577637264446886,-6.723404732156364,-30.469898041474586,-4.577637264446886,-0.04182468020200707
217,0.17815004289150238,3.004074454793269,11.157990832089284,2.7179721257653386,4.720688428960852,-6.723404732156364,-30.183795712446656,-4.434586099932921,-0.04222515632464141
218,0.17865005135536194,3.1471256193072343,11.157990832089284,2.7179721257653386,4.577637264446886,-6.866455896670329,-30.183795712446656,-4.577637264446886,-0.04262564438254793
219,0.1791500449180603,3.1471256193072343,11.157990832089284,2.7179721257653386,4.577637264446886,-6.723404732156364,-30.32684687696062,-4.577637264446886,-0.04302612050518227
220,0.17965003848075867,3.1471256193072343,11.157990832089284,2.7179721257653386,4.577637264446886,-6.723404732156364,-30.469898041474586,-4.434586099932921,-0.043426596627816616
221,0.18015004694461823,3.1471256193072343,11.30104199660325,2.7179721257653386,4.577637264446886,-6.5803535676423985,-30.32684687696062,-4.434586099932921,-0.04382708468572313
222,0.1806500405073166,3.004074454793269,11.444093161117216,2.7179721257653386,4.577637264446886,-6.294251238614469,-30.61294920598855,-4.291534935418956,-0.04422756080835748
223,0.18115004897117615,3.004074454793269,11.444093161117216,2.7179721257653386,4.577637264446886,-6.151200074100503,-30.756000370502516,-4.14848377090499,-0.044628048866263995
224,0.1816500425338745,3.004074454793269,11.587144325631181,2.7179721257653386,4.577637264446886,-6.151200074100503,-30.899051535016483,-4.14848377090499,-0.04502852498889834
225,0.18215005099773407,2.861023290279304,11.587144325631181,2.861023290279304,4.577637264446886,-6.008148909586538,-30.899051535016483,-4.14848377090499,-0.045429013046804856
226,0.18265004456043243,2.861023290279304,11.587144325631181,2.7179721257653386,4.720688428960852,-6.151200074100503,-30.899051535016483,-4.14848377090499,-0.0458294891694392
227,0.1831500381231308,2.5749209612513733,11.587144325631181,2.7179721257653386,4.577637264446886,-6.151200074100503,-30.899051535016483,-4.14848377090499,-0.046229965292073544
228,0.18365004658699036,2.5749209612513733,11.444093161117216,2.7179721257653386,4.720688428960852,-6.151200074100503,-30.756000370502516,-4.14848377090499,-0.04663045334998007
229,0.18415004014968872,2.5749209612513733,11.444093161117216,2.7179721257653386,4.577637264446886,-6.008148909586538,-30.756000370502516,-4.14848377090499,-0.047030929472614405
230,0.18465004861354828,2.5749209612513733,11.587144325631181,2.7179721257653386,4.720688428960852,-5.865097745072573,-31.185153864044413,-4.14848377090499,-0.04743141753052093
231,0.18515004217624664,2.5749209612513733,11.587144325631181,2.7179721257653386,4.720688428960852,-5.722046580558608,-31.185153864044413,-4.005432606391025,-0.04783189365315527
232,0.1856500506401062,2.7179721257653386,11.587144325631181,2.7179721257653386,4.577637264446886,-5.865097745072573,-30.32684687696062,-4.005432606391025,-0.04823238171106179
233,0.18615004420280457,2.7179721257653386,11.444093161117216,2.7179721257653386,4.720688428960852,-6.008148909586538,-29.039386396334933,-4.14848377090499,-0.04862910860291962
234,0.18665003776550293,2.7179721257653386,11.444093161117216,2.7179721257653386,4.720688428960852,-6.008148909586538,-28.038028244737177,-4.291534935418956,-0.049020211927947414
235,0.1871500462293625,2.5749209612513733,11.587144325631181,2.7179721257653386,4.720688428960852,-6.008148909586538,-28.324130573765107,-4.291534935418956,-0.04941132690891265
236,0.18765003979206085,2.7179721257653386,11.587144325631181,2.7179721257653386,4.720688428960852,-6.008148909586538,-29.039386396334933,-4.14848377090499,-0.049802430233940445
237,0.1881500482559204,2.5749209612513733,11.444093161117216,2.7179721257653386,4.577637264446886,-6.151200074100503,-29.897693383418726,-4.291534935418956,-0.05019354521490568
238,0.18865004181861877,2.7179721257653386,11.444093161117216,2.7179721257653386,4.720688428960852,-6.294251238614469,-30.61294920598855,-4.291534935418956,-0.05058464853993347
239,0.18915005028247833,2.7179721257653386,11.444093161117216,2.7179721257653386,4.577637264446886,-6.294251238614469,-31.042102699530446,-4.434586099932921,-0.050975763520898706
240,0.1896500438451767,2.5749209612513733,11.444093161117216,2.7179721257653386,4.720688428960852,-6.294251238614469,-30.756000370502516,-4.434586099932921,-0.0513668668459265
241,0.19015003740787506,2.5749209612513733,11.587144325631181,2.7179721257653386,4.577637264446886,-6.437302403128434,-30.04074454793269,-4.434586099932921,-0.05175797017095429
242,0.19065004587173462,2.5749209612513733,11.587144325631181,2.7179721257653386,4.577637264446886,-6.437302403128434,-29.611591054390793,-4.434586099932921,-0.05214908515191953
243,0.19115003943443298,2.5749209612513733,11.587144325631181,2.7179721257653386,4.720688428960852,-6.5803535676423985,-29.75464221890476,-4.434586099932921,-0.052540188476947323
244,0.19165004789829254,2.5749209612513733,11.587144325631181,2.5749209612513733,4.720688428960852,-6.5803535676423985,-30.183795712446656,-4.434586099932921,-0.05293130345791256
245,0.1921500414609909,2.5749209612513733,11.587144325631181,2.7179721257653386,4.720688428960852,-6.5803535676423985,-30.61294920598855,-4.434586099932921,-0.053322406782940354
246,0.19265004992485046,2.7179721257653386,11.587144325631181,2.7179721257653386,4.720688428960852,-6.723404732156364,-30.756000370502516,-4.434586099932921,-0.05371352176390559
247,0.19315004348754883,2.7179721257653386,11.587144325631181,2.7179721257653386,4.720688428960852,-6.866455896670329,-30.756000370502516,-4.434586099932921,-0.054104625088933385
248,0.1936500370502472,2.7179721257653386,11.444093161117216,2.7179721257653386,4.720688428960852,-6.866455896670329,-30.756000370502516,-4.577637264446886,-0.05449572841396118
249,0.19415004551410675,2.5749209612513733,11.587144325631181,2.7179721257653386,4.577637264446886,-6.866455896670329,-30.756000370502516,-4.577637264446886,-0.054886843394926416
250,0.19465003907680511,2.7179721257653386,11.587144325631181,2.7179721257653386,4.720688428960852,-6.723404732156364,-30.756000370502516,-4.577637264446886,-0.0552779467199542
251,0.19515004754066467,2.7179721257653386,11.444093161117216,2.7179721257653386,4.720688428960852,-6.5803535676423985,-30.899051535016483,-4.577637264446886,-0.05566906170091944
252,0.19565004110336304,2.7179721257653386,11.587144325631181,2.7179721257653386,4.720688428960852,-6.5803535676423985,-31.042102699530446,-4.434586099932921,-0.05606016502594723
253,0.1961500495672226,2.861023290279304,11.444093161117216,2.7179721257653386,4.720688428960852,-6.437302403128434,-30.899051535016483,-4.434586099932921,-0.05645128000691247
254,0.19665004312992096,2.7179721257653386,11.444093161117216,2.7179721257653386,4.720688428960852,-6.437302403128434,-30.899051535016483,-4.434586099932921,-0.05684168899396892
255,0.19715005159378052,2.7179721257653386,11.444093161117216,2.7179721257653386,4.577637264446886,-6.437302403128434,-30.899051535016483,-4.577637264446886,-0.05723193602013669
256,0.19765004515647888,2.7179721257653386,11.444093161117216,2.7179721257653386,4.720688428960852,-6.294251238614469,-30.899051535016483,-4.434586099932921,-0.057622171416233645
257,0.19815003871917725,2.7179721257653386,11.444093161117216,2.7179721257653386,4.720688428960852,-6.437302403128434,-30.899051535016483,-4.434586099932921,-0.0580124068123306
258,0.1986500471830368,2.861023290279304,11.444093161117216,2.7179721257653386,4.720688428960852,-6.294251238614469,-30.899051535016483,-4.434586099932921,-0.05840265383849837
259,0.19915004074573517,2.7179721257653386,11.444093161117216,2.7179721257653386,4.720688428960852,-6.294251238614469,-30.899051535016483,-4.434586099932921,-0.05879288923459532
260,0.19965004920959473,2.7179721257653386,11.444093161117216,2.7179721257653386,4.720688428960852,-6.294251238614469,-30.756000370502516,-4.434586099932921,-0.059183136260763096
261,0.2001500427722931,2.7179721257653386,11.587144325631181,2.7179721257653386,4.720688428960852,-6.437302403128434,-30.61294920598855,-4.434586099932921,-0.05957337165686005
262,0.20065005123615265,2.861023290279304,11.587144325631181,2.7179721257653386,4.720688428960852,-6.437302403128434,-30.32684687696062,-4.434586099932921,-0.05996361868302782
263,0.201150044798851,2.861023290279304,11.587144325631181,2.7179721257653386,4.720688428960852,-6.294251238614469,-30.183795712446656,-4.434586099932921,-0.060353854079124775
264,0.20165003836154938,2.861023290279304,11.587144325631181,2.7179721257653386,4.720688428960852,-6.294251238614469,-30.32684687696062,-4.291534935418956,-0.06074408947522173
265,0.20215004682540894,2.861023290279304,11.587144325631181,2.7179721257653386,4.720688428960852,-6.294251238614469,-30.183795712446656,-4.291534935418956,-0.061134336501389504
266,0.2026500403881073,2.861023290279304,11.587144325631181,2.7179721257653386,4.720688428960852,-6.294251238614469,-30.32684687696062,-4.14848377090499,-0.06152457189748646
267,0.20315004885196686,2.861023290279304,11.587144325631181,2.7179721257653386,4.720688428960852,-6.294251238614469,-30.183795712446656,-4.14848377090499,-0.061914818923654226
268,0.20365004241466522,3.004074454793269,11.587144325631181,2.7179721257653386,4.720688428960852,-6.294251238614469,-30.04074454793269,-4.14848377090499,-0.06230505431975118
269,0.20415005087852478,3.004074454793269,11.444093161117216,2.7179721257653386,4.720688428960852,-6.151200074100503,-30.04074454793269,-4.291534935418956,-0.06269530134591896
270,0.20465004444122314,3.004074454793269,11.30104199660325,2.7179721257653386,4.720688428960852,-6.294251238614469,-29.897693383418726,-4.291534935418956,-0.0630855367420159
271,0.2051500380039215,3.004074454793269,11.157990832089284,2.7179721257653386,4.720688428960852,-6.151200074100503,-30.04074454793269,-4.291534935418956,-0.06347577213811287
272,0.20565004646778107,3.004074454793269,10.871888503061355,2.861023290279304,4.720688428960852,-6.151200074100503,-30.32684687696062,-4.291534935418956,-0.06386601916428063
273,0.20615004003047943,3.004074454793269,10.871888503061355,2.7179721257653386,4.720688428960852,-6.008148909586538,-30.756000370502516,-4.291534935418956,-0.06425625456037759
274,0.206650048494339,3.004074454793269,11.01493966757532,2.7179721257653386,4.720688428960852,-6.008148909586538,-31.042102699530446,-4.434586099932921,-0.06464986726248166
275,0.20715004205703735,2.861023290279304,11.30104199660325,2.7179721257653386,4.863739593474817,-6.008148909586538,-31.471256193072342,-4.291534935418956,-0.06504430962811991
276,0.2076500505208969,2.861023290279304,11.30104199660325,2.7179721257653386,4.720688428960852,-6.008148909586538,-31.471256193072342,-4.291534935418956,-0.06543876374920805
277,0.20815004408359528,2.861023290279304,11.444093161117216,2.7179721257653386,4.720688428960852,-6.008148909586538,-31.471256193072342,-4.291534935418956,-0.0658332061148463
278,0.20865003764629364,3.004074454793269,11.30104199660325,2.7179721257653386,4.720688428960852,-6.008148909586538,-31.757358522100272,-4.291534935418956,-0.06622764848048455
279,0.2091500461101532,3.004074454793269,11.30104199660325,2.7179721257653386,4.863739593474817,-6.008148909586538,-32.0434608511282,-4.291534935418956,-0.0666221026015727
280,0.20965003967285156,3.004074454793269,11.30104199660325,2.7179721257653386,4.720688428960852,-6.008148909586538,-31.90040968661424,-4.434586099932921,-0.06701654496721095
281,0.21015004813671112,3.1471256193072343,11.30104199660325,2.7179721257653386,4.863739593474817,-6.151200074100503,-31.614307357586306,-4.577637264446886,-0.06741099908829909
282,0.21065004169940948,3.1471256193072343,11.157990832089284,2.7179721257653386,4.863739593474817,-6.008148909586538,-31.328205028558376,-4.577637264446886,-0.06780544145393734
283,0.21115005016326904,3.1471256193072343,11.157990832089284,2.7179721257653386,4.720688428960852,-5.865097745072573,-31.328205028558376,-4.577637264446886,-0.06819989557502548
284,0.2116500437259674,3.1471256193072343,11.30104199660325,2.7179721257653386,4.720688428960852,-5.722046580558608,-31.614307357586306,-4.434586099932921,-0.06859433794066373
285,0.21215003728866577,3.004074454793269,11.444093161117216,2.7179721257653386,4.863739593474817,-5.722046580558608,-31.90040968661424,-4.434586099932921,-0.06898878030630198
286,0.21265004575252533,3.004074454793269,11.444093161117216,2.7179721257653386,4.720688428960852,-5.865097745072573,-31.614307357586306,-4.434586099932921,-0.06938323442739013
287,0.2131500393152237,3.004074454793269,11.444093161117216,2.7179721257653386,4.863739593474817,-6.151200074100503,-31.185153864044413,-4.434586099932921,-0.06977767679302838
288,0.21365004777908325,3.004074454793269,11.444093161117216,2.7179721257653386,4.720688428960852,-6.151200074100503,-30.61294920598855,-4.434586099932921,-0.07017213091411653
289,0.21415004134178162,3.004074454793269,11.444093161117216,2.7179721257653386,4.863739593474817,-6.294251238614469,-30.183795712446656,-4.434586099932921,-0.07056657327975478
290,0.21465004980564117,2.861023290279304,11.30104199660325,2.7179721257653386,4.863739593474817,-6.294251238614469,-29.75464221890476,-4.434586099932921,-0.07096102740084292
291,0.21515004336833954,2.861023290279304,11.30104199660325,2.7179721257653386,4.863739593474817,-6.437302403128434,-29.611591054390793,-4.291534935418956,-0.07135546976648117
292,0.2156500369310379,2.7179721257653386,11.30104199660325,2.7179721257653386,4.863739593474817,-6.437302403128434,-29.46853988987683,-4.291534935418956,-0.07174991213211943
293,0.21615004539489746,2.7179721257653386,11.444093161117216,2.5749209612513733,4.863739593474817,-6.5803535676423985,-29.325488725362863,-4.434586099932921,-0.07214436625320757
294,0.21665003895759583,2.7179721257653386,11.444093161117216,2.5749209612513733,4.863739593474817,-6.723404732156364,-29.325488725362863,-4.434586099932921,-0.07254300382406886
295,0.21715004742145538,2.7179721257653386,11.444093161117216,2.7179721257653386,4.863739593474817,-6.723404732156364,-29.325488725362863,-4.577637264446886,-0.07294794673967747
296,0.21765004098415375,2.7179721257653386,11.444093161117216,2.7179721257653386,4.720688428960852,-6.5803535676423985,-29.325488725362863,-4.577637264446886,-0.07335287758725106
297,0.2181500494480133,2.7179721257653386,11.444093161117216,2.7179721257653386,4.863739593474817,-6.151200074100503,-29.611591054390793,-4.577637264446886,-0.07375782050285967
298,0.21865004301071167,2.7179721257653386,11.444093161117216,2.5749209612513733,4.863739593474817,-6.008148909586538,-30.183795712446656,-4.434586099932921,-0.07416275135043325
299,0.21915005147457123,2.5749209612513733,11.444093161117216,2.7179721257653386,4.863739593474817,-5.722046580558608,-30.61294920598855,-4.291534935418956,-0.07456769426604187
300,0.2196500450372696,2.5749209612513733,11.587144325631181,2.7179721257653386,4.863739593474817,-5.865097745072573,-30.899051535016483,-4.291534935418956,-0.07497262511361545
301,0.22015003859996796,2.7179721257653386,11.587144325631181,2.5749209612513733,4.863739593474817,-5.722046580558608,-30.756000370502516,-4.291534935418956,-0.07537755596118903
302,0.22065004706382751,2.7179721257653386,11.444093161117216,2.5749209612513733,4.863739593474817,-5.865097745072573,-30.899051535016483,-4.434586099932921,-0.07578249887679765
303,0.22115004062652588,2.7179721257653386,11.444093161117216,2.7179721257653386,4.863739593474817,-5.722046580558608,-31.471256193072342,-4.434586099932921,-0.07618742972437123
304,0.22165004909038544,2.861023290279304,11.444093161117216,2.5749209612513733,4.863739593474817,-5.865097745072573,-31.614307357586306,-4.434586099932921,-0.07659237263997985
305,0.2221500426530838,2.861023290279304,11.444093161117216,2.7179721257653386,4.863739593474817,-5.865097745072573,-31.471256193072342,-4.434586099932921,-0.07699730348755343
306,0.22265005111694336,2.861023290279304,11.30104199660325,2.7179721257653386,4.863739593474817,-6.008148909586538,-31.042102699530446,-4.291534935418956,-0.07740224640316204
307,0.22315004467964172,2.861023290279304,11.444093161117216,2.7179721257653386,4.863739593474817,-5.865097745072573,-30.899051535016483,-4.291534935418956,-0.07780717725073563
308,0.2236500382423401,3.004074454793269,11.30104199660325,2.7179721257653386,5.006790757988782,-6.008148909586538,-31.042102699530446,-4.291534935418956,-0.07821210809830921
309,0.22415004670619965,3.004074454793269,11.444093161117216,2.7179721257653386,5.006790757988782,-5.865097745072573,-31.042102699530446,-4.291534935418956,-0.07861705101391782
310,0.224650040268898,3.004074454793269,11.30104199660325,2.7179721257653386,5.006790757988782,-5.865097745072573,-31.185153864044413,-4.434586099932921,-0.07902198186149141
311,0.22525005042552948,3.1471256193072343,11.444093161117216,2.7179721257653386,5.006790757988782,-5.865097745072573,-31.614307357586306,-4.434586099932921,-0.07950791336022174
312,0.22575004398822784,3.004074454793269,11.30104199660325,2.861023290279304,5.006790757988782,-5.865097745072573,-31.757358522100272,-4.434586099932921,-0.07991284420779532
313,0.2262500375509262,3.004074454793269,11.30104199660325,2.861023290279304,5.006790757988782,-5.865097745072573,-31.614307357586306,-4.434586099932921,-0.08031649726934915
314,0.22675004601478577,2.861023290279304,11.30104199660325,2.861023290279304,5.006790757988782,-5.865097745072573,-31.185153864044413,-4.434586099932921,-0.08071505030270851
315,0.22725003957748413,3.004074454793269,11.30104199660325,2.861023290279304,5.006790757988782,-5.865097745072573,-30.756000370502516,-4.434586099932921,-0.08111359145846292
316,0.2277500480413437,2.861023290279304,11.30104199660325,2.861023290279304,5.1498419225027465,-5.865097745072573,-30.183795712446656,-4.434586099932921,-0.08151214449182227
317,0.22825004160404205,2.7179721257653386,11.444093161117216,2.861023290279304,5.006790757988782,-5.865097745072573,-29.75464221890476,-4.434586099932921,-0.08191068564757668
318,0.2287500500679016,2.861023290279304,11.444093161117216,2.861023290279304,5.006790757988782,-6.008148909586538,-29.611591054390793,-4.434586099932921,-0.08230923868093602
319,0.22925004363059998,2.861023290279304,11.30104199660325,2.861023290279304,5.006790757988782,-6.008148909586538,-29.611591054390793,-4.434586099932921,-0.08270777983669045
320,0.22975003719329834,3.004074454793269,11.30104199660325,2.861023290279304,5.006790757988782,-6.008148909586538,-30.183795712446656,-4.291534935418956,-0.08310632099244486
321,0.2302500456571579,3.004074454793269,11.30104199660325,2.7179721257653386,5.006790757988782,-5.865097745072573,-31.328205028558376,-4.14848377090499,-0.0835048740258042
322,0.23075003921985626,3.1471256193072343,11.30104199660325,2.861023290279304,5.006790757988782,-5.865097745072573,-31.757358522100272,-4.005432606391025,-0.08390341518155862
323,0.23125004768371582,3.004074454793269,11.30104199660325,2.861023290279304,5.006790757988782,-6.008148909586538,-31.185153864044413,-4.14848377090499,-0.08430196821491796
324,0.23175004124641418,3.1471256193072343,11.30104199660325,2.861023290279304,5.006790757988782,-6.151200074100503,-30.04074454793269,-4.14848377090499,-0.08470050937067239
325,0.23225004971027374,3.1471256193072343,11.444093161117216,2.861023290279304,5.006790757988782,-6.151200074100503,-29.325488725362863,-4.291534935418956,-0.08509906240403173
326,0.2327500432729721,3.2901767838211993,11.444093161117216,2.7179721257653386,5.006790757988782,-6.294251238614469,-29.325488725362863,-4.434586099932921,-0.08549760355978614
327,0.23325003683567047,3.4332279483351646,11.444093161117216,2.861023290279304,5.006790757988782,-6.437302403128434,-29.75464221890476,-4.577637264446886,-0.08589614471554056
328,0.23375004529953003,3.4332279483351646,11.30104199660325,2.861023290279304,5.006790757988782,-6.5803535676423985,-30.32684687696062,-4.577637264446886,-0.0862946977488999
329,0.2342500388622284,3.4332279483351646,11.30104199660325,2.861023290279304,5.006790757988782,-6.437302403128434,-30.899051535016483,-4.577637264446886,-0.08669323890465432
330,0.23475004732608795,3.4332279483351646,11.30104199660325,2.861023290279304,5.006790757988782,-6.294251238614469,-31.042102699530446,-4.577637264446886,-0.08709179193801367
331,0.23525004088878632,3.2901767838211993,11.157990832089284,2.861023290279304,5.1498419225027465,-6.151200074100503,-31.042102699530446,-4.577637264446886,-0.08749033309376808
332,0.23575004935264587,3.1471256193072343,11.30104199660325,2.861023290279304,5.1498419225027465,-6.008148909586538,-30.899051535016483,-4.434586099932921,-0.08788888612712743
333,0.23625004291534424,3.1471256193072343,11.30104199660325,2.861023290279304,5.1498419225027465,-5.865097745072573,-30.61294920598855,-4.434586099932921,-0.08828742728288184
334,0.2367500513792038,3.1471256193072343,11.30104199660325,2.7179721257653386,5.006790757988782,-5.722046580558608,-30.756000370502516,-4.434586099932921,-0.08870677129355659
335,0.23725004494190216,3.2901767838211993,11.01493966757532,2.861023290279304,5.006790757988782,-5.722046580558608,-31.185153864044413,-4.434586099932921,-0.08912610280701747
336,0.23775003850460052,3.1471256193072343,10.585786174033425,2.7179721257653386,5.1498419225027465,-5.578995416044642,-32.0434608511282,-4.434586099932921,-0.08954543432047836
337,0.23825004696846008,2.861023290279304,10.72883733854739,2.7179721257653386,5.006790757988782,-5.722046580558608,-32.61566550918406,-4.291534935418956,-0.0899647783311531
338,0.23875004053115845,2.4318697967374083,11.157990832089284,2.7179721257653386,5.1498419225027465,-5.578995416044642,-32.0434608511282,-4.14848377090499,-0.09038410984461398
339,0.239250048995018,2.288818632223443,11.587144325631181,2.861023290279304,5.006790757988782,-5.722046580558608,-30.756000370502516,-4.14848377090499,-0.09080345385528872
340,0.23975004255771637,2.288818632223443,11.87324665465911,2.7179721257653386,5.1498419225027465,-5.865097745072573,-29.75464221890476,-4.291534935418956,-0.09122278536874961
341,0.24025005102157593,2.288818632223443,11.730195490145146,2.7179721257653386,5.006790757988782,-6.008148909586538,-29.325488725362863,-4.14848377090499,-0.09164212937942434
342,0.2407500445842743,2.4318697967374083,11.587144325631181,2.7179721257653386,5.006790757988782,-6.008148909586538,-29.1824375608489,-4.291534935418956,-0.09206146089288524
343,0.24125003814697266,2.7179721257653386,11.444093161117216,2.7179721257653386,5.1498419225027465,-6.294251238614469,-29.1824375608489,-4.291534935418956,-0.09248079240634612
344,0.24175004661083221,2.7179721257653386,11.444093161117216,2.861023290279304,5.006790757988782,-6.151200074100503,-29.46853988987683,-4.434586099932921,-0.09290013641702086
345,0.24225004017353058,2.861023290279304,11.30104199660325,2.7179721257653386,5.006790757988782,-6.294251238614469,-29.897693383418726,-4.434586099932921,-0.09331946793048175
346,0.24275004863739014,2.861023290279304,11.30104199660325,2.861023290279304,5.1498419225027465,-6.294251238614469,-30.183795712446656,-4.434586099932921,-0.09373881194115648
347,0.2432500422000885,2.861023290279304,11.30104199660325,2.861023290279304,5.1498419225027465,-6.151200074100503,-30.469898041474586,-4.577637264446886,-0.09415814345461737
348,0.24375005066394806,3.004074454793269,11.30104199660325,2.7179721257653386,5.1498419225027465,-6.151200074100503,-30.469898041474586,-4.577637264446886,-0.09457748746529211
349,0.24425004422664642,3.004074454793269,11.30104199660325,2.7179721257653386,5.1498419225027465,-6.151200074100503,-30.61294920598855,-4.577637264446886,-0.09499681897875299
350,0.2447500377893448,2.861023290279304,11.30104199660325,2.861023290279304,5.1498419225027465,-6.151200074100503,-30.469898041474586,-4.434586099932921,-0.09541615049221389
351,0.24525004625320435,3.004074454793269,11.30104199660325,2.861023290279304,5.1498419225027465,-6.008148909586538,-30.61294920598855,-4.577637264446886,-0.09583549450288863
352,0.2457500398159027,3.004074454793269,11.157990832089284,2.861023290279304,5.1498419225027465,-6.151200074100503,-30.61294920598855,-4.434586099932921,-0.0962548260163495
353,0.24625004827976227,3.004074454793269,11.157990832089284,2.861023290279304,5.1498419225027465,-6.151200074100503,-30.756000370502516,-4.434586099932921,-0.09667417002702425
354,0.24675004184246063,2.861023290279304,11.157990832089284,2.861023290279304,5.1498419225027465,-6.294251238614469,-30.61294920598855,-4.434586099932921,-0.09709609157743236
355,0.2472500503063202,2.861023290279304,11.30104199660325,2.861023290279304,5.1498419225027465,-6.294251238614469,-30.61294920598855,-4.434586099932921,-0.09751802570224444
356,0.24775004386901855,2.861023290279304,11.30104199660325,2.861023290279304,5.1498419225027465,-6.294251238614469,-30.61294920598855,-4.434586099932921,-0.09793994725265254
357,0.24825003743171692,2.861023290279304,11.30104199660325,2.861023290279304,5.1498419225027465,-6.437302403128434,-30.61294920598855,-4.434586099932921,-0.09836186880306065
358,0.24875004589557648,2.861023290279304,11.30104199660325,3.004074454793269,5.1498419225027465,-6.437302403128434,-30.61294920598855,-4.291534935418956,-0.09878380292787273
359,0.24925003945827484,2.861023290279304,11.30104199660325,2.861023290279304,5.1498419225027465,-6.5803535676423985,-30.469898041474586,-4.291534935418956,-0.09920572447828084
360,0.2497500479221344,2.861023290279304,11.30104199660325,2.861023290279304,5.1498419225027465,-6.5803535676423985,-30.469898041474586,-4.291534935418956,-0.09962765860309292
361,0.25025004148483276,2.861023290279304,11.30104199660325,2.861023290279304,5.1498419225027465,-6.437302403128434,-30.32684687696062,-4.291534935418956,-0.10004958015350102
362,0.25075003504753113,2.861023290279304,11.30104199660325,2.861023290279304,5.1498419225027465,-6.437302403128434,-30.183795712446656,-4.291534935418956,-0.10047150170390913
363,0.2512500584125519,2.861023290279304,11.30104199660325,2.861023290279304,5.1498419225027465,-6.437302403128434,-30.183795712446656,-4.291534935418956,-0.10089344840312517
364,0.25175005197525024,2.861023290279304,11.30104199660325,3.004074454793269,5.1498419225027465,-6.294251238614469,-30.183795712446656,-4.434586099932921,-0.10131536995353328
365,0.2522500455379486,2.861023290279304,11.30104199660325,2.861023290279304,5.1498419225027465,-6.294251238614469,-30.32684687696062,-4.434586099932921,-0.1017372915039414
366,0.252750039100647,2.861023290279304,11.30104199660325,2.861023290279304,5.1498419225027465,-6.151200074100503,-30.32684687696062,-4.434586099932921,-0.1021592130543495
367,0.25325003266334534,3.004074454793269,11.30104199660325,2.861023290279304,5.1498419225027465,-6.294251238614469,-30.32684687696062,-4.291534935418956,-0.10258113460475761
368,0.2537500560283661,2.861023290279304,11.30104199660325,2.861023290279304,5.1498419225027465,-6.151200074100503,-30.183795712446656,-4.291534935418956,-0.10300308130397365
369,0.25425004959106445,3.004074454793269,11.30104199660325,2.861023290279304,5.1498419225027465,-6.008148909586538,-30.183795712446656,-4.291534935418956,-0.10342500285438176
370,0.2547500431537628,3.004074454793269,11.30104199660325,2.861023290279304,5.1498419225027465,-6.008148909586538,-30.04074454793269,-4.14848377090499,-0.10384692440478988
371,0.2552500367164612,3.004074454793269,11.30104199660325,2.861023290279304,5.1498419225027465,-6.008148909586538,-30.04074454793269,-4.291534935418956,-0.10426884595519798
372,0.25575003027915955,3.004074454793269,11.30104199660325,2.861023290279304,5.1498419225027465,-6.008148909586538,-30.183795712446656,-4.291534935418956,-0.10469076750560609
373,0.2562500536441803,3.004074454793269,11.157990832089284,2.861023290279304,5.1498419225027465,-5.865097745072573,-30.469898041474586,-4.14848377090499,-0.10511820580130549
374,0.25675004720687866,3.004074454793269,11.157990832089284,2.861023290279304,5.1498419225027465,-5.722046580558608,-30.756000370502516,-4.291534935418956,-0.10554927928517953
375,0.257250040769577,3.004074454793269,11.30104199660325,2.7179721257653386,5.1498419225027465,-5.865097745072573,-31.042102699530446,-4.291534935418956,-0.10598035276905357
376,0.2577500343322754,3.004074454793269,11.30104199660325,2.7179721257653386,5.1498419225027465,-5.865097745072573,-31.185153864044413,-4.14848377090499,-0.10641142625292761
377,0.25825005769729614,3.004074454793269,11.157990832089284,2.7179721257653386,5.1498419225027465,-6.008148909586538,-31.042102699530446,-4.291534935418956,-0.10684252543111433
378,0.2587500512599945,3.004074454793269,11.30104199660325,2.861023290279304,5.1498419225027465,-6.008148909586538,-30.899051535016483,-4.291534935418956,-0.10727359891498837
379,0.25925004482269287,3.004074454793269,11.157990832089284,2.7179721257653386,5.292893087016712,-6.151200074100503,-30.756000370502516,-4.291534935418956,-0.10770467239886242
380,0.25975003838539124,3.004074454793269,11.157990832089284,2.861023290279304,5.1498419225027465,-6.294251238614469,-30.899051535016483,-4.291534935418956,-0.10813574588273646
381,0.2602500319480896,3.004074454793269,11.30104199660325,2.7179721257653386,5.1498419225027465,-6.294251238614469,-30.899051535016483,-4.291534935418956,-0.1085668193666105
382,0.26075005531311035,3.004074454793269,11.157990832089284,2.861023290279304,5.1498419225027465,-6.151200074100503,-31.042102699530446,-4.291534935418956,-0.10899791854479722
383,0.2612500488758087,3.004074454793269,11.30104199660325,2.861023290279304,5.292893087016712,-6.008148909586538,-30.899051535016483,-4.291534935418956,-0.10942899202867126
384,0.2617500424385071,3.004074454793269,11.30104199660325,2.861023290279304,5.292893087016712,-6.008148909586538,-30.899051535016483,-4.291534935418956,-0.1098600655125453
385,0.26225003600120544,3.004074454793269,11.30104199660325,2.861023290279304,5.1498419225027465,-5.865097745072573,-30.899051535016483,-4.291534935418956,-0.11029113899641935
386,0.2627500295639038,3.004074454793269,11.30104199660325,2.861023290279304,5.1498419225027465,-5.865097745072573,-30.756000370502516,-4.291534935418956,-0.11072221248029339
387,0.26325005292892456,3.004074454793269,11.30104199660325,2.861023290279304,5.292893087016712,-5.722046580558608,-30.61294920598855,-4.291534935418956,-0.11115331165848011
388,0.2637500464916229,3.004074454793269,11.30104199660325,2.861023290279304,5.292893087016712,-5.865097745072573,-30.32684687696062,-4.434586099932921,-0.11158438514235415
389,0.2642500400543213,3.004074454793269,11.157990832089284,2.861023290279304,5.292893087016712,-5.722046580558608,-30.32684687696062,-4.434586099932921,-0.11201545862622819
390,0.26475003361701965,2.861023290279304,11.30104199660325,2.861023290279304,5.1498419225027465,-5.865097745072573,-30.183795712446656,-4.434586099932921,-0.11244653211010223
391,0.2652500569820404,3.004074454793269,11.30104199660325,2.861023290279304,5.292893087016712,-5.865097745072573,-30.04074454793269,-4.291534935418956,-0.11287763128828895
392,0.26575005054473877,3.004074454793269,11.157990832089284,2.861023290279304,5.292893087016712,-6.008148909586538,-30.04074454793269,-4.14848377090499,-0.113308704772163
393,0.26625004410743713,2.861023290279304,11.157990832089284,2.861023290279304,5.1498419225027465,-5.865097745072573,-30.183795712446656,-4.291534935418956,-0.11373977825603704
394,0.2667500376701355,3.004074454793269,11.157990832089284,2.861023290279304,5.1498419225027465,-5.865097745072573,-30.32684687696062,-4.14848377090499,-0.1141773967326148
395,0.26725003123283386,3.004074454793269,11.157990832089284,2.861023290279304,5.1498419225027465,-5.865097745072573,-30.32684687696062,-4.14848377090499,-0.11461937875439768
396,0.2677500545978546,3.004074454793269,11.30104199660325,2.861023290279304,5.1498419225027465,-6.008148909586538,-30.183795712446656,-4.291534935418956,-0.11506138712070113
397,0.268250048160553,3.004074454793269,11.30104199660325,2.861023290279304,5.1498419225027465,-6.008148909586538,-30.32684687696062,-4.14848377090499,-0.115503369142484
398,0.26875004172325134,3.004074454793269,11.30104199660325,2.861023290279304,5.1498419225027465,-6.008148909586538,-30.469898041474586,-4.291534935418956,-0.11594535116426688
399,0.2692500352859497,3.004074454793269,11.157990832089284,2.861023290279304,5.1498419225027465,-6.151200074100503,-30.32684687696062,-4.291534935418956,-0.11638733318604975
400,0.26975005865097046,2.861023290279304,11.30104199660325,2.861023290279304,5.1498419225027465,-6.294251238614469,-30.32684687696062,-4.291534935418956,-0.11682934155235321
401,0.2702500522136688,3.004074454793269,11.30104199660325,2.7179721257653386,5.1498419225027465,-6.151200074100503,-30.32684687696062,-4.291534935418956,-0.11727132357413608
402,0.2707500457763672,3.004074454793269,11.30104199660325,2.7179721257653386,5.1498419225027465,-6.294251238614469,-30.32684687696062,-4.291534935418956,-0.11771330559591896
403,0.27125003933906555,3.004074454793269,11.30104199660325,2.7179721257653386,5.1498419225027465,-6.294251238614469,-30.32684687696062,-4.291534935418956,-0.11815528761770183
404,0.2717500329017639,3.004074454793269,11.30104199660325,2.7179721257653386,5.1498419225027465,-6.294251238614469,-30.469898041474586,-4.434586099932921,-0.1185972696394847
405,0.27225005626678467,3.004074454793269,11.157990832089284,2.7179721257653386,5.1498419225027465,-6.437302403128434,-30.61294920598855,-4.434586099932921,-0.11903927800578816
406,0.27275004982948303,3.004074454793269,11.30104199660325,2.7179721257653386,5.1498419225027465,-6.151200074100503,-30.61294920598855,-4.291534935418956,-0.11948126002757103
407,0.2732500433921814,3.004074454793269,11.157990832089284,2.7179721257653386,5.1498419225027465,-6.151200074100503,-30.61294920598855,-4.291534935418956,-0.11992324204935391
408,0.27375003695487976,3.004074454793269,11.30104199660325,2.861023290279304,5.292893087016712,-5.865097745072573,-30.469898041474586,-4.291534935418956,-0.12036522407113678
409,0.2742500305175781,3.004074454793269,11.157990832089284,2.861023290279304,5.292893087016712,-5.865097745072573,-30.183795712446656,-4.291534935418956,-0.12080720609291966
410,0.2747500538825989,3.004074454793269,11.30104199660325,2.861023290279304,5.292893087016712,-6.008148909586538,-30.04074454793269,-4.14848377090499,-0.12124921445922311
411,0.27525004744529724,3.004074454793269,11.157990832089284,2.861023290279304,5.292893087016712,-6.008148909586538,-30.04074454793269,-4.291534935418956,-0.12169119648100599
412,0.2757500410079956,3.004074454793269,11.30104199660325,2.861023290279304,5.292893087016712,-6.008148909586538,-30.32684687696062,-4.14848377090499,-0.12213317850278886
413,0.27625003457069397,3.004074454793269,11.157990832089284,2.861023290279304,5.1498419225027465,-6.008148909586538,-30.61294920598855,-4.14848377090499,-0.12257516052457174
414,0.2767500579357147,3.004074454793269,11.30104199660325,2.7179721257653386,5.292893087016712,-5.865097745072573,-30.756000370502516,-4.14848377090499,-0.12302918885901341
415,0.2772500514984131,3.004074454793269,11.157990832089284,2.861023290279304,5.292893087016712,-6.151200074100503,-30.756000370502516,-4.14848377090499,-0.12349120256903061
416,0.27775004506111145,3.1471256193072343,11.157990832089284,2.861023290279304,5.1498419225027465,-6.151200074100503,-30.469898041474586,-4.14848377090499,-0.12395321627904782
417,0.2782500386238098,3.004074454793269,11.157990832089284,2.861023290279304,5.1498419225027465,-6.294251238614469,-30.183795712446656,-4.291534935418956,-0.12441522998906501
418,0.2787500321865082,3.1471256193072343,11.157990832089284,2.861023290279304,5.1498419225027465,-6.151200074100503,-29.897693383418726,-4.291534935418956,-0.12487724369908222
419,0.27925005555152893,3.004074454793269,11.157990832089284,2.861023290279304,5.1498419225027465,-6.151200074100503,-29.897693383418726,-4.291534935418956,-0.12533928494761704
420,0.2797500491142273,3.004074454793269,11.157990832089284,2.861023290279304,5.1498419225027465,-6.008148909586538,-30.04074454793269,-4.14848377090499,-0.12580129865763423
421,0.28025004267692566,3.1471256193072343,11.157990832089284,3.004074454793269,5.1498419225027465,-6.008148909586538,-30.61294920598855,-4.14848377090499,-0.12626331236765143
422,0.280750036239624,3.1471256193072343,11.157990832089284,3.004074454793269,5.1498419225027465,-5.865097745072573,-31.042102699530446,-4.14848377090499,-0.12672532607766865
423,0.2812500298023224,3.1471256193072343,11.157990832089284,3.004074454793269,5.1498419225027465,-5.865097745072573,-31.185153864044413,-4.14848377090499,-0.12718733978768584
424,0.28175005316734314,3.004074454793269,11.157990832089284,3.004074454793269,5.292893087016712,-5.865097745072573,-31.328205028558376,-4.291534935418956,-0.12764938103622064
425,0.2822500467300415,3.1471256193072343,11.157990832089284,3.004074454793269,5.1498419225027465,-5.865097745072573,-31.614307357586306,-4.291534935418956,-0.12811139474623787
426,0.28275004029273987,3.1471256193072343,11.157990832089284,2.861023290279304,5.1498419225027465,-5.722046580558608,-31.614307357586306,-4.291534935418956,-0.12857340845625506
427,0.28325003385543823,3.1471256193072343,11.157990832089284,2.861023290279304,5.1498419225027465,-5.578995416044642,-31.328205028558376,-4.291534935418956,-0.12903542216627226
428,0.283750057220459,3.1471256193072343,11.157990832089284,2.861023290279304,5.006790757988782,-5.435944251530677,-31.185153864044413,-4.291534935418956,-0.12949746341480706
429,0.28425005078315735,3.1471256193072343,11.157990832089284,2.861023290279304,5.1498419225027465,-5.292893087016712,-31.042102699530446,-4.291534935418956,-0.12995947712482428
430,0.2847500443458557,3.004074454793269,11.157990832089284,2.861023290279304,5.006790757988782,-5.1498419225027465,-30.899051535016483,-4.14848377090499,-0.13042149083484147
431,0.2852500379085541,3.004074454793269,11.157990832089284,2.861023290279304,5.1498419225027465,-5.1498419225027465,-31.185153864044413,-4.005432606391025,-0.13088350454485867
432,0.28575003147125244,3.004074454793269,11.157990832089284,2.861023290279304,5.1498419225027465,-5.006790757988782,-31.185153864044413,-4.005432606391025,-0.13134551825487586
433,0.2862500548362732,3.004074454793269,11.30104199660325,2.861023290279304,5.1498419225027465,-5.006790757988782,-31.328205028558376,-3.8623814418770603,-0.1318075595034107
434,0.28675004839897156,3.004074454793269,11.30104199660325,2.861023290279304,5.1498419225027465,-5.006790757988782,-31.042102699530446,-3.8623814418770603,-0.13227416979745715
435,0.2872500419616699,2.861023290279304,11.30104199660325,2.861023290279304,5.1498419225027465,-5.006790757988782,-30.756000370502516,-3.8623814418770603,-0.1327419290662777
436,0.2877500355243683,3.1471256193072343,11.30104199660325,2.861023290279304,5.1498419225027465,-5.1498419225027465,-30.469898041474586,-3.8623814418770603,-0.13320968833509828
437,0.28825005888938904,3.1471256193072343,11.30104199660325,2.861023290279304,5.1498419225027465,-5.435944251530677,-30.183795712446656,-4.005432606391025,-0.13367747548490283
438,0.2887500524520874,3.004074454793269,11.30104199660325,2.861023290279304,5.006790757988782,-5.578995416044642,-30.04074454793269,-4.005432606391025,-0.1341452347537234
439,0.28925004601478577,3.004074454793269,11.30104199660325,2.861023290279304,5.1498419225027465,-5.722046580558608,-30.32684687696062,-4.14848377090499,-0.13461299402254395
440,0.28975003957748413,3.1471256193072343,11.30104199660325,2.861023290279304,5.1498419225027465,-6.008148909586538,-30.04074454793269,-4.291534935418956,-0.1350807532913645
441,0.2902500331401825,3.1471256193072343,11.30104199660325,2.861023290279304,5.1498419225027465,-6.151200074100503,-29.75464221890476,-4.291534935418956,-0.13554851256018507
442,0.29075005650520325,3.2901767838211993,11.30104199660325,2.861023290279304,5.1498419225027465,-6.008148909586538,-29.897693383418726,-4.291534935418956,-0.13601629970998966
443,0.2912500500679016,3.2901767838211993,11.157990832089284,2.861023290279304,5.1498419225027465,-6.008148909586538,-30.469898041474586,-4.14848377090499,-0.13648405897881022
444,0.2917500436306,3.2901767838211993,11.157990832089284,2.861023290279304,5.1498419225027465,-5.865097745072573,-31.185153864044413,-4.291534935418956,-0.13695181824763078
445,0.29225003719329834,3.2901767838211993,11.30104199660325,2.861023290279304,5.1498419225027465,-5.722046580558608,-31.757358522100272,-4.291534935418956,-0.13741957751645134
446,0.2927500307559967,3.2901767838211993,11.30104199660325,2.861023290279304,5.006790757988782,-5.722046580558608,-32.0434608511282,-4.434586099932921,-0.1378873367852719
447,0.29325005412101746,3.4332279483351646,11.30104199660325,2.861023290279304,5.1498419225027465,-5.722046580558608,-32.186512015642165,-4.291534935418956,-0.13835512393507648
448,0.2937500476837158,3.4332279483351646,11.157990832089284,2.861023290279304,5.1498419225027465,-5.722046580558608,-32.186512015642165,-4.291534935418956,-0.13882288320389705
449,0.2942500412464142,3.4332279483351646,11.157990832089284,2.861023290279304,5.006790757988782,-5.578995416044642,-32.0434608511282,-4.291534935418956,-0.1392906424727176
450,0.29475003480911255,3.2901767838211993,11.157990832089284,2.861023290279304,5.006790757988782,-5.578995416044642,-31.471256193072342,-4.291534935418956,-0.13975840174153817
451,0.2952500581741333,3.1471256193072343,11.157990832089284,2.861023290279304,5.006790757988782,-5.578995416044642,-31.042102699530446,-4.291534935418956,-0.14022618889134275
452,0.29575005173683167,3.004074454793269,11.157990832089284,2.861023290279304,5.006790757988782,-5.722046580558608,-30.756000370502516,-4.291534935418956,-0.14069394816016328
453,0.29625004529953003,2.861023290279304,11.157990832089284,2.861023290279304,5.1498419225027465,-5.722046580558608,-30.469898041474586,-4.291534935418956,-0.14116170742898387
454,0.2967500388622284,2.861023290279304,11.01493966757532,2.861023290279304,5.006790757988782,-5.722046580558608,-30.04074454793269,-4.291534935418956,-0.1416221240219169
455,0.29725003242492676,2.861023290279304,11.01493966757532,2.861023290279304,5.1498419225027465,-5.865097745072573,-30.32684687696062,-4.291534935418956,-0.1420807052194094
456,0.2977500557899475,2.861023290279304,11.157990832089284,2.861023290279304,5.006790757988782,-6.151200074100503,-30.756000370502516,-4.14848377090499,-0.1425393137508232
457,0.2982500493526459,2.861023290279304,11.30104199660325,2.861023290279304,5.006790757988782,-6.294251238614469,-30.756000370502516,-4.14848377090499,-0.14299789494831572
458,0.29875004291534424,3.004074454793269,11.157990832089284,2.861023290279304,5.006790757988782,-6.294251238614469,-30.32684687696062,-4.14848377090499,-0.14345647614580825
459,0.2992500364780426,3.004074454793269,11.01493966757532,2.861023290279304,5.006790757988782,-6.437302403128434,-30.04074454793269,-4.14848377090499,-0.14391505734330076
460,0.29975003004074097,3.004074454793269,10.871888503061355,2.861023290279304,5.006790757988782,-6.437302403128434,-29.75464221890476,-4.005432606391025,-0.14437363854079327
461,0.3002500534057617,3.004074454793269,11.01493966757532,2.861023290279304,5.006790757988782,-6.437302403128434,-29.75464221890476,-4.14848377090499,-0.14483224707220707
462,0.3007500469684601,3.004074454793269,11.01493966757532,2.861023290279304,5.006790757988782,-6.5803535676423985,-30.04074454793269,-4.005432606391025,-0.1452908282696996
463,0.30125004053115845,3.1471256193072343,11.157990832089284,2.861023290279304,5.006790757988782,-6.723404732156364,-30.04074454793269,-4.14848377090499,-0.14574940946719211
464,0.3018500506877899,3.1471256193072343,11.157990832089284,2.861023290279304,5.006790757988782,-6.723404732156364,-29.75464221890476,-4.291534935418956,-0.1462997233045359
465,0.3023500442504883,3.004074454793269,11.157990832089284,2.861023290279304,5.006790757988782,-6.5803535676423985,-29.611591054390793,-4.291534935418956,-0.14675830450202842
466,0.30285003781318665,3.004074454793269,11.157990832089284,2.861023290279304,5.006790757988782,-6.437302403128434,-29.611591054390793,-4.291534935418956,-0.14721688569952093
467,0.303350031375885,3.004074454793269,11.157990832089284,2.861023290279304,5.006790757988782,-6.294251238614469,-29.897693383418726,-4.291534935418956,-0.14767546689701344
468,0.30385005474090576,2.861023290279304,11.30104199660325,2.861023290279304,5.006790757988782,-6.151200074100503,-30.04074454793269,-4.291534935418956,-0.14813407542842724
469,0.3043500483036041,2.861023290279304,11.30104199660325,2.861023290279304,5.006790757988782,-6.008148909586538,-30.469898041474586,-4.291534935418956,-0.14859265662591978
470,0.3048500418663025,2.861023290279304,11.30104199660325,2.861023290279304,5.006790757988782,-5.865097745072573,-30.756000370502516,-4.291534935418956,-0.14905123782341229
471,0.30535003542900085,2.861023290279304,11.30104199660325,2.861023290279304,5.006790757988782,-5.722046580558608,-30.899051535016483,-4.14848377090499,-0.1495098190209048
472,0.3058500587940216,2.861023290279304,11.444093161117216,2.861023290279304,5.006790757988782,-5.578995416044642,-30.756000370502516,-4.14848377090499,-0.1499684275523186
473,0.30635005235671997,2.861023290279304,11.30104199660325,2.861023290279304,5.006790757988782,-5.578995416044642,-30.756000370502516,-4.005432606391025,-0.15042700874981113
474,0.30685004591941833,2.861023290279304,11.30104199660325,2.861023290279304,5.006790757988782,-5.578995416044642,-30.756000370502516,-4.005432606391025,-0.1508900381621309
475,0.3073500394821167,2.861023290279304,11.30104199660325,2.861023290279304,5.006790757988782,-5.578995416044642,-30.32684687696062,-4.14848377090499,-0.15135417946245136
476,0.30785003304481506,3.004074454793269,11.30104199660325,2.861023290279304,5.006790757988782,-5.722046580558608,-30.04074454793269,-4.14848377090499,-0.15181832076277185
477,0.3083500564098358,3.004074454793269,11.30104199660325,2.861023290279304,5.006790757988782,-5.865097745072573,-29.897693383418726,-4.14848377090499,-0.15228248972842584
478,0.3088500499725342,3.004074454793269,11.30104199660325,2.861023290279304,5.006790757988782,-5.865097745072573,-29.75464221890476,-4.291534935418956,-0.15274663102874633
479,0.30935004353523254,3.004074454793269,11.30104199660325,2.861023290279304,5.006790757988782,-6.008148909586538,-29.46853988987683,-4.14848377090499,-0.1532107723290668
480,0.3098500370979309,3.004074454793269,11.30104199660325,2.861023290279304,5.006790757988782,-6.008148909586538,-29.46853988987683,-4.291534935418956,-0.1536749136293873
481,0.3103500306606293,3.004074454793269,11.30104199660325,2.861023290279304,5.1498419225027465,-6.008148909586538,-29.897693383418726,-4.14848377090499,-0.15413905492970778
482,0.31085005402565,3.004074454793269,11.30104199660325,2.861023290279304,5.006790757988782,-6.008148909586538,-30.32684687696062,-4.14848377090499,-0.15460322389536177
483,0.3113500475883484,3.1471256193072343,11.157990832089284,2.861023290279304,5.006790757988782,-6.008148909586538,-30.469898041474586,-4.291534935418956,-0.15506736519568223
484,0.31185004115104675,3.1471256193072343,11.01493966757532,2.861023290279304,5.006790757988782,-6.008148909586538,-30.469898041474586,-4.291534935418956,-0.15553150649600272
485,0.3123500347137451,3.2901767838211993,11.01493966757532,2.861023290279304,5.006790757988782,-5.865097745072573,-30.183795712446656,-4.291534935418956,-0.1559956477963232
486,0.31285005807876587,3.2901767838211993,11.01493966757532,3.004074454793269,5.006790757988782,-5.865097745072573,-29.897693383418726,-4.291534935418956,-0.1564598167619772
487,0.31335005164146423,3.4332279483351646,10.871888503061355,2.861023290279304,5.006790757988782,-5.578995416044642,-29.75464221890476,-4.291534935418956,-0.15692395806229767
488,0.3138500452041626,3.4332279483351646,10.871888503061355,3.004074454793269,5.006790757988782,-5.578995416044642,-29.897693383418726,-4.434586099932921,-0.15738809936261816
489,0.31435003876686096,3.5762791128491296,10.871888503061355,3.004074454793269,5.006790757988782,-5.435944251530677,-30.32684687696062,-4.434586099932921,-0.15785224066293863
490,0.3148500323295593,3.719330277363095,10.871888503061355,3.004074454793269,5.006790757988782,-5.292893087016712,-30.756000370502516,-4.434586099932921,-0.15831638196325912
491,0.3153500556945801,3.719330277363095,10.72883733854739,2.861023290279304,5.006790757988782,-5.006790757988782,-30.899051535016483,-4.434586099932921,-0.1587805509289131
492,0.31585004925727844,3.8623814418770603,10.871888503061355,3.004074454793269,5.006790757988782,-5.006790757988782,-30.61294920598855,-4.291534935418956,-0.1592446922292336
493,0.3163500428199768,3.8623814418770603,10.871888503061355,2.861023290279304,5.006790757988782,-5.1498419225027465,-30.04074454793269,-4.291534935418956,-0.15970883352955406
494,0.31685003638267517,3.5762791128491296,11.157990832089284,2.861023290279304,5.006790757988782,-5.1498419225027465,-29.75464221890476,-4.291534935418956,-0.16018908007830127
495,0.31735002994537354,3.4332279483351646,11.30104199660325,2.861023290279304,5.006790757988782,-5.1498419225027465,-29.611591054390793,-4.14848377090499,-0.16067335233919802
496,0.3178500533103943,3.1471256193072343,11.30104199660325,2.861023290279304,5.006790757988782,-5.006790757988782,-29.75464221890476,-4.14848377090499,-0.1611576534653425
497,0.31835004687309265,3.1471256193072343,11.30104199660325,2.861023290279304,5.006790757988782,-5.1498419225027465,-30.183795712446656,-4.14848377090499,-0.16164192572623928
498,0.318850040435791,2.861023290279304,11.30104199660325,2.861023290279304,5.006790757988782,-5.006790757988782,-30.899051535016483,-4.14848377090499,-0.16212619798713604
499,0.3193500339984894,2.5749209612513733,11.30104199660325,2.861023290279304,5.006790757988782,-5.006790757988782,-31.90040968661424,-4.14848377090499,-0.1626104702480328
500,0.31985005736351013,2.4318697967374083,11.444093161117216,2.861023290279304,5.1498419225027465,-5.006790757988782,-32.186512015642165,-4.14848377090499,-0.1630947713741773
501,0.3203500509262085,2.4318697967374083,11.587144325631181,2.861023290279304,5.1498419225027465,-5.006790757988782,-31.757358522100272,-4.14848377090499,-0.16357904363507406
502,0.32085004448890686,2.5749209612513733,11.444093161117216,2.861023290279304,5.006790757988782,-5.292893087016712,-31.328205028558376,-4.291534935418956,-0.1640633158959708
503,0.3213500380516052,2.5749209612513733,11.444093161117216,2.861023290279304,5.006790757988782,-5.435944251530677,-31.042102699530446,-4.291534935418956,-0.1645475881568676
504,0.3218500316143036,2.7179721257653386,11.30104199660325,2.861023290279304,5.006790757988782,-5.865097745072573,-31.042102699530446,-4.291534935418956,-0.16503186041776435
505,0.32235005497932434,2.861023290279304,11.30104199660325,2.861023290279304,5.006790757988782,-6.151200074100503,-30.756000370502516,-4.291534935418956,-0.16551616154390883
506,0.3228500485420227,3.004074454793269,11.30104199660325,2.861023290279304,5.1498419225027465,-6.5803535676423985,-30.61294920598855,-4.14848377090499,-0.1660004338048056
507,0.32335004210472107,3.004074454793269,11.157990832089284,2.861023290279304,5.006790757988782,-6.723404732156364,-30.469898041474586,-4.291534935418956,-0.16648470606570237
508,0.32385003566741943,3.1471256193072343,11.157990832089284,3.004074454793269,5.006790757988782,-6.437302403128434,-30.04074454793269,-4.14848377090499,-0.16696897832659913
509,0.3243500590324402,3.1471256193072343,11.157990832089284,2.861023290279304,5.1498419225027465,-6.437302403128434,-29.897693383418726,-4.14848377090499,-0.16745327945274363
510,0.32485005259513855,3.1471256193072343,11.30104199660325,2.861023290279304,5.1498419225027465,-6.294251238614469,-29.611591054390793,-4.291534935418956,-0.1679375517136404
511,0.3253500461578369,3.1471256193072343,11.30104199660325,3.004074454793269,5.006790757988782,-6.294251238614469,-29.46853988987683,-4.14848377090499,-0.16842182397453714
512,0.3258500397205353,3.1471256193072343,11.30104199660325,2.861023290279304,5.006790757988782,-5.865097745072573,-29.611591054390793,-4.14848377090499,-0.16890609623543393
513,0.32635003328323364,3.1471256193072343,11.157990832089284,2.861023290279304,5.006790757988782,-5.865097745072573,-29.897693383418726,-4.14848377090499,-0.16938680183343433
514,0.3268500566482544,3.2901767838211993,11.157990832089284,3.004074454793269,5.006790757988782,-5.578995416044642,-29.897693383418726,-4.005432606391025,-0.16986664416589167
515,0.32735005021095276,3.2901767838211993,11.157990832089284,3.004074454793269,5.006790757988782,-5.578995416044642,-30.32684687696062,-4.005432606391025,-0.17034645789885372
516,0.3278500437736511,3.1471256193072343,11.157990832089284,3.004074454793269,5.006790757988782,-5.292893087016712,-31.185153864044413,-4.005432606391025,-0.17082627163181574
517,0.3283500373363495,3.004074454793269,11.157990832089284,3.004074454793269,5.1498419225027465,-5.292893087016712,-31.471256193072342,-4.005432606391025,-0.17130608536477776
518,0.32885003089904785,2.861023290279304,11.30104199660325,2.861023290279304,5.006790757988782,-5.1498419225027465,-31.471256193072342,-4.005432606391025,-0.1717858990977398
519,0.3293500542640686,3.004074454793269,11.30104199660325,3.004074454793269,5.1498419225027465,-5.006790757988782,-30.899051535016483,-4.005432606391025,-0.17226574143019716
520,0.32985004782676697,3.004074454793269,11.444093161117216,2.861023290279304,5.1498419225027465,-5.006790757988782,-30.61294920598855,-3.8623814418770603,-0.17274555516315918
521,0.33035004138946533,3.004074454793269,11.444093161117216,2.861023290279304,5.006790757988782,-5.006790757988782,-30.899051535016483,-3.8623814418770603,-0.17322536889612122
522,0.3308500349521637,2.861023290279304,11.30104199660325,2.861023290279304,5.006790757988782,-5.006790757988782,-31.471256193072342,-4.005432606391025,-0.17370518262908324
523,0.33135005831718445,2.861023290279304,11.30104199660325,2.861023290279304,5.006790757988782,-5.1498419225027465,-32.0434608511282,-4.005432606391025,-0.1741850249615406
524,0.3318500518798828,2.861023290279304,11.30104199660325,2.861023290279304,5.006790757988782,-5.292893087016712,-31.90040968661424,-4.14848377090499,-0.1746648386945026
525,0.3323500454425812,2.861023290279304,11.30104199660325,2.861023290279304,5.006790757988782,-5.435944251530677,-31.185153864044413,-4.291534935418956,-0.17514465242746466
526,0.33285003900527954,2.861023290279304,11.444093161117216,2.861023290279304,5.006790757988782,-5.722046580558608,-30.756000370502516,-4.434586099932921,-0.17562446616042668
527,0.3333500325679779,2.7179721257653386,11.30104199660325,2.861023290279304,5.006790757988782,-5.722046580558608,-30.756000370502516,-4.434586099932921,-0.1761042798933887
528,0.33385005593299866,2.861023290279304,11.30104199660325,2.861023290279304,5.006790757988782,-5.865097745072573,-30.756000370502516,-4.434586099932921,-0.17658412222584605
529,0.334350049495697,2.861023290279304,11.30104199660325,2.861023290279304,5.1498419225027465,-6.008148909586538,-30.756000370502516,-4.434586099932921,-0.1770639359588081
530,0.3348500430583954,3.004074454793269,11.30104199660325,2.861023290279304,5.006790757988782,-6.008148909586538,-31.042102699530446,-4.434586099932921,-0.17754374969177011
531,0.33535003662109375,3.004074454793269,11.30104199660325,2.861023290279304,5.1498419225027465,-5.865097745072573,-31.471256193072342,-4.434586099932921,-0.17802356342473216
532,0.3358500301837921,3.004074454793269,11.30104199660325,2.861023290279304,5.1498419225027465,-5.722046580558608,-31.614307357586306,-4.291534935418956,-0.17850337715769418
533,0.33635005354881287,3.004074454793269,11.157990832089284,2.861023290279304,5.1498419225027465,-5.578995416044642,-31.614307357586306,-4.291534935418956,-0.17898321949015153
534,0.33685004711151123,3.004074454793269,11.157990832089284,2.861023290279304,5.1498419225027465,-5.722046580558608,-31.614307357586306,-4.14848377090499,-0.1794576152948634
535,0.3373500406742096,3.004074454793269,11.157990832089284,2.861023290279304,5.1498419225027465,-5.722046580558608,-31.185153864044413,-4.14848377090499,-0.1799320110995753
536,0.33785003423690796,3.1471256193072343,11.157990832089284,2.861023290279304,5.1498419225027465,-5.865097745072573,-30.61294920598855,-4.14848377090499,-0.18040640690428716
537,0.3383500576019287,3.1471256193072343,11.157990832089284,2.861023290279304,5.1498419225027465,-6.151200074100503,-30.183795712446656,-4.14848377090499,-0.18088083098555652
538,0.3388500511646271,3.004074454793269,11.157990832089284,2.861023290279304,5.1498419225027465,-6.294251238614469,-29.897693383418726,-4.14848377090499,-0.1813552267902684
539,0.33935004472732544,3.004074454793269,11.157990832089284,2.861023290279304,5.1498419225027465,-6.294251238614469,-29.897693383418726,-4.14848377090499,-0.18182962259498026
540,0.3398500382900238,3.004074454793269,11.157990832089284,2.861023290279304,5.1498419225027465,-6.294251238614469,-29.897693383418726,-4.14848377090499,-0.18230401839969212
541,0.34035003185272217,3.004074454793269,11.157990832089284,2.861023290279304,5.1498419225027465,-6.151200074100503,-30.04074454793269,-4.291534935418956,-0.18277841420440402
542,0.3408500552177429,3.1471256193072343,11.157990832089284,2.861023290279304,5.1498419225027465,-6.151200074100503,-30.183795712446656,-4.291534935418956,-0.18325283828567335
543,0.3413500487804413,3.004074454793269,11.157990832089284,2.861023290279304,5.1498419225027465,-6.008148909586538,-30.32684687696062,-4.291534935418956,-0.18372723409038524
544,0.34185004234313965,3.1471256193072343,11.157990832089284,2.861023290279304,5.1498419225027465,-6.008148909586538,-30.183795712446656,-4.291534935418956,-0.1842016298950971
545,0.342350035905838,3.1471256193072343,11.157990832089284,2.861023290279304,5.1498419225027465,-6.008148909586538,-30.183795712446656,-4.291534935418956,-0.18467602569980898
546,0.3428500294685364,3.1471256193072343,11.157990832089284,2.861023290279304,5.1498419225027465,-5.865097745072573,-30.183795712446656,-4.291534935418956,-0.18515042150452085
547,0.34335005283355713,3.1471256193072343,11.157990832089284,2.861023290279304,5.1498419225027465,-5.722046580558608,-30.32684687696062,-4.291534935418956,-0.1856248455857902
548,0.3438500463962555,3.1471256193072343,11.157990832089284,2.861023290279304,5.1498419225027465,-5.435944251530677,-30.756000370502516,-4.434586099932921,-0.1860992413905021
549,0.34435003995895386,3.1471256193072343,11.157990832089284,2.861023290279304,5.1498419225027465,-5.292893087016712,-31.042102699530446,-4.434586099932921,-0.18657363719521397
550,0.3448500335216522,3.1471256193072343,11.157990832089284,2.861023290279304,5.1498419225027465,-5.1498419225027465,-31.185153864044413,-4.291534935418956,-0.18704803299992584
551,0.345350056886673,3.1471256193072343,11.157990832089284,2.861023290279304,5.1498419225027465,-5.1498419225027465,-31.328205028558376,-4.291534935418956,-0.1875224570811952
552,0.34585005044937134,3.1471256193072343,11.157990832089284,2.861023290279304,5.1498419225027465,-5.292893087016712,-31.471256193072342,-4.291534935418956,-0.18799685288590706
553,0.3463500440120697,3.1471256193072343,11.157990832089284,2.861023290279304,5.1498419225027465,-5.1498419225027465,-31.614307357586306,-4.291534935418956,-0.18847124869061893
554,0.34685003757476807,3.1471256193072343,11.157990832089284,2.861023290279304,5.1498419225027465,-5.006790757988782,-31.328205028558376,-4.291534935418956,-0.18895086853670967
555,0.34735003113746643,3.1471256193072343,11.157990832089284,2.861023290279304,5.1498419225027465,-5.1498419225027465,-31.042102699530446,-4.434586099932921,-0.1894317941985377
556,0.3478500545024872,3.1471256193072343,11.157990832089284,2.861023290279304,5.1498419225027465,-5.1498419225027465,-30.469898041474586,-4.291534935418956,-0.18991274852613804
557,0.34835004806518555,3.1471256193072343,11.157990832089284,2.861023290279304,5.1498419225027465,-5.292893087016712,-30.469898041474586,-4.291534935418956,-0.19039367418796607
558,0.3488500416278839,3.1471256193072343,11.157990832089284,2.861023290279304,5.292893087016712,-5.1498419225027465,-30.899051535016483,-4.291534935418956,-0.1908745998497941
559,0.3493500351905823,3.1471256193072343,11.157990832089284,2.861023290279304,5.1498419225027465,-5.1498419225027465,-31.471256193072342,-4.005432606391025,-0.19135552551162213
560,0.349850058555603,3.1471256193072343,11.157990832089284,2.861023290279304,5.292893087016712,-5.006790757988782,-31.471256193072342,-4.005432606391025,-0.19183647983922245
561,0.3503500521183014,3.1471256193072343,11.157990832089284,2.861023290279304,5.1498419225027465,-5.006790757988782,-30.899051535016483,-4.14848377090499,-0.19231740550105048
562,0.35085004568099976,3.1471256193072343,11.157990832089284,2.861023290279304,5.292893087016712,-5.1498419225027465,-30.32684687696062,-4.14848377090499,-0.1927983311628785
563,0.3513500392436981,3.1471256193072343,11.157990832089284,2.861023290279304,5.1498419225027465,-5.292893087016712,-29.897693383418726,-4.291534935418956,-0.19327925682470654
564,0.3518500328063965,3.1471256193072343,11.157990832089284,2.861023290279304,5.1498419225027465,-5.292893087016712,-29.75464221890476,-4.291534935418956,-0.19376018248653457
565,0.35235005617141724,3.1471256193072343,11.157990832089284,2.7179721257653386,5.1498419225027465,-5.722046580558608,-29.897693383418726,-4.291534935418956,-0.1942411368141349
566,0.3528500497341156,3.1471256193072343,11.157990832089284,2.861023290279304,5.1498419225027465,-5.865097745072573,-30.183795712446656,-4.291534935418956,-0.19472206247596294
567,0.35335004329681396,3.1471256193072343,11.157990832089284,2.861023290279304,5.1498419225027465,-6.008148909586538,-30.469898041474586,-4.291534935418956,-0.19520298813779097
568,0.35385003685951233,3.1471256193072343,11.157990832089284,2.861023290279304,5.292893087016712,-6.008148909586538,-30.469898041474586,-4.291534935418956,-0.195683913799619
569,0.3543500304222107,3.1471256193072343,11.157990832089284,2.861023290279304,5.292893087016712,-6.294251238614469,-29.897693383418726,-4.291534935418956,-0.19616483946144703
570,0.35485005378723145,3.2901767838211993,11.157990832089284,2.861023290279304,5.1498419225027465,-6.437302403128434,-29.46853988987683,-4.14848377090499,-0.19664579378904734
571,0.3553500473499298,3.1471256193072343,11.157990832089284,2.861023290279304,5.292893087016712,-6.437302403128434,-29.46853988987683,-4.291534935418956,-0.19712671945087537
572,0.3558500409126282,3.1471256193072343,11.30104199660325,2.861023290279304,5.292893087016712,-6.437302403128434,-29.75464221890476,-4.291534935418956,-0.1976076451127034
573,0.35635003447532654,3.1471256193072343,11.157990832089284,2.861023290279304,5.292893087016712,-6.437302403128434,-29.897693383418726,-4.14848377090499,-0.19808857077453146
574,0.3568500578403473,3.1471256193072343,11.157990832089284,2.861023290279304,5.292893087016712,-6.294251238614469,-29.611591054390793,-4.291534935418956,-0.1985852305797392
575,0.35735005140304565,3.1471256193072343,11.157990832089284,2.861023290279304,5.292893087016712,-6.294251238614469,-29.1824375608489,-4.14848377090499,-0.1990923299574528
576,0.357850044965744,3.2901767838211993,11.157990832089284,2.861023290279304,5.292893087016712,-6.151200074100503,-29.039386396334933,-4.291534935418956,-0.19959942933516636
577,0.3583500385284424,3.2901767838211993,11.157990832089284,2.861023290279304,5.292893087016712,-6.008148909586538,-28.753284067307003,-4.291534935418956,-0.20010652871287996
578,0.35885003209114075,3.2901767838211993,11.157990832089284,2.861023290279304,5.292893087016712,-5.722046580558608,-28.753284067307003,-4.291534935418956,-0.20061362809059355
579,0.3593500554561615,3.1471256193072343,11.157990832089284,2.861023290279304,5.292893087016712,-5.435944251530677,-28.89633523182097,-4.291534935418956,-0.20112075769417453
580,0.35985004901885986,3.1471256193072343,11.157990832089284,2.861023290279304,5.292893087016712,-5.435944251530677,-29.46853988987683,-4.291534935418956,-0.20162785707188813
581,0.3603500425815582,3.1471256193072343,11.157990832089284,2.861023290279304,5.292893087016712,-5.292893087016712,-30.04074454793269,-4.14848377090499,-0.20213495644960172
582,0.3608500361442566,3.1471256193072343,11.30104199660325,2.861023290279304,5.292893087016712,-5.1498419225027465,-30.32684687696062,-4.14848377090499,-0.2026420558273153
583,0.36135002970695496,3.1471256193072343,11.157990832089284,2.861023290279304,5.292893087016712,-5.292893087016712,-30.756000370502516,-4.14848377090499,-0.20314915520502888
584,0.3618500530719757,3.1471256193072343,11.157990832089284,2.861023290279304,5.1498419225027465,-5.292893087016712,-31.185153864044413,-4.14848377090499,-0.20365628480860987
585,0.3623500466346741,3.1471256193072343,11.157990832089284,2.861023290279304,5.292893087016712,-5.578995416044642,-30.899051535016483,-4.291534935418956,-0.20416338418632346
586,0.36285004019737244,3.1471256193072343,11.01493966757532,2.861023290279304,5.1498419225027465,-5.722046580558608,-30.469898041474586,-4.434586099932921,-0.20467048356403705
587,0.3633500337600708,3.1471256193072343,11.157990832089284,2.861023290279304,5.292893087016712,-5.865097745072573,-30.04074454793269,-4.434586099932921,-0.20517758294175062
588,0.36385005712509155,3.1471256193072343,11.157990832089284,2.861023290279304,5.292893087016712,-6.008148909586538,-30.04074454793269,-4.434586099932921,-0.20568471254533163
589,0.3643500506877899,3.2901767838211993,11.157990832089284,2.861023290279304,5.292893087016712,-6.294251238614469,-30.04074454793269,-4.434586099932921,-0.20619181192304523
590,0.3648500442504883,3.2901767838211993,11.157990832089284,2.861023290279304,5.292893087016712,-6.294251238614469,-30.32684687696062,-4.291534935418956,-0.2066989113007588
591,0.36535003781318665,3.1471256193072343,11.157990832089284,2.861023290279304,5.1498419225027465,-6.294251238614469,-30.899051535016483,-4.434586099932921,-0.20720601067847239
592,0.365850031375885,3.2901767838211993,11.157990832089284,2.861023290279304,5.292893087016712,-6.294251238614469,-30.899051535016483,-4.434586099932921,-0.20771311005618598
593,0.36635005474090576,3.1471256193072343,11.157990832089284,2.861023290279304,5.292893087016712,-6.151200074100503,-30.899051535016483,-4.434586099932921,-0.2082171356890026
594,0.3668500483036041,3.1471256193072343,11.157990832089284,2.861023290279304,5.292893087016712,-6.151200074100503,-30.899051535016483,-4.434586099932921,-0.20872035521889068
595,0.3673500418663025,3.1471256193072343,11.157990832089284,2.861023290279304,5.292893087016712,-6.151200074100503,-30.61294920598855,-4.291534935418956,-0.20922357474877876
596,0.36785003542900085,3.1471256193072343,11.157990832089284,2.861023290279304,5.292893087016712,-6.294251238614469,-30.32684687696062,-4.291534935418956,-0.20972679427866683
597,0.3683500587940216,3.1471256193072343,11.157990832089284,2.861023290279304,5.292893087016712,-6.294251238614469,-30.469898041474586,-4.291534935418956,-0.21023004380316243
598,0.36885005235671997,3.2901767838211993,11.157990832089284,2.861023290279304,5.292893087016712,-6.151200074100503,-30.899051535016483,-4.14848377090499,-0.2107332633330505
599,0.36935004591941833,3.2901767838211993,11.157990832089284,2.861023290279304,5.292893087016712,-6.008148909586538,-31.328205028558376,-4.14848377090499,-0.21123648286293858
600,0.3698500394821167,3.1471256193072343,11.157990832089284,2.861023290279304,5.292893087016712,-6.008148909586538,-31.185153864044413,-4.005432606391025,-0.21173970239282666
601,0.37035003304481506,3.2901767838211993,11.157990832089284,2.861023290279304,5.292893087016712,-5.865097745072573,-30.61294920598855,-4.14848377090499,-0.21224292192271474
602,0.3708500564098358,3.2901767838211993,11.157990832089284,2.861023290279304,5.292893087016712,-5.865097745072573,-29.897693383418726,-4.14848377090499,-0.2127461714472103
603,0.3713500499725342,3.2901767838211993,11.157990832089284,2.861023290279304,5.435944251530677,-5.865097745072573,-29.46853988987683,-4.14848377090499,-0.2132493909770984
604,0.37185004353523254,3.2901767838211993,11.157990832089284,2.861023290279304,5.292893087016712,-5.865097745072573,-29.325488725362863,-4.14848377090499,-0.2137526105069865
605,0.3723500370979309,3.2901767838211993,11.157990832089284,2.861023290279304,5.292893087016712,-5.722046580558608,-29.75464221890476,-4.14848377090499,-0.21425583003687457
606,0.3728500306606293,3.1471256193072343,11.157990832089284,2.861023290279304,5.292893087016712,-5.578995416044642,-30.61294920598855,-4.14848377090499,-0.21475904956676264
607,0.37335005402565,3.1471256193072343,11.157990832089284,2.861023290279304,5.292893087016712,-5.292893087016712,-31.328205028558376,-4.14848377090499,-0.2152622990912582
608,0.3738500475883484,3.1471256193072343,11.157990832089284,2.861023290279304,5.292893087016712,-5.1498419225027465,-31.614307357586306,-4.005432606391025,-0.2157655186211463
609,0.37435004115104675,3.2901767838211993,11.157990832089284,2.861023290279304,5.292893087016712,-5.006790757988782,-31.185153864044413,-4.14848377090499,-0.2162687381510344
610,0.3748500347137451,3.1471256193072343,11.01493966757532,2.861023290279304,5.292893087016712,-4.863739593474817,-30.756000370502516,-4.14848377090499,-0.21677195768092247
611,0.37535005807876587,3.1471256193072343,11.157990832089284,2.861023290279304,5.292893087016712,-5.006790757988782,-30.899051535016483,-4.14848377090499,-0.21727520720541804
612,0.37585005164146423,3.2901767838211993,11.01493966757532,2.861023290279304,5.292893087016712,-4.863739593474817,-31.185153864044413,-4.291534935418956,-0.21777842673530612
613,0.3763500452041626,3.2901767838211993,11.157990832089284,2.861023290279304,5.292893087016712,-5.006790757988782,-31.471256193072342,-4.291534935418956,-0.21828164123677357
614,0.37685003876686096,3.2901767838211993,11.01493966757532,2.861023290279304,5.292893087016712,-5.1498419225027465,-31.328205028558376,-4.434586099932921,-0.21878483562156092
615,0.3773500323295593,3.2901767838211993,11.01493966757532,2.861023290279304,5.292893087016712,-5.435944251530677,-31.328205028558376,-4.577637264446886,-0.21928803000634828
616,0.3778500556945801,3.4332279483351646,11.01493966757532,3.004074454793269,5.292893087016712,-5.435944251530677,-31.185153864044413,-4.720688428960852,-0.21979125438424435
617,0.37845003604888916,3.2901767838211993,11.01493966757532,3.004074454793269,5.292893087016712,-5.1498419225027465,-31.042102699530446,-4.720688428960852,-0.22039507564874566
618,0.3789500296115875,3.2901767838211993,11.01493966757532,3.004074454793269,5.292893087016712,-4.863739593474817,-31.042102699530446,-4.720688428960852,-0.22089827003353302
619,0.3794500529766083,3.2901767838211993,11.01493966757532,2.861023290279304,5.292893087016712,-4.577637264446886,-31.185153864044413,-4.720688428960852,-0.2214014944114291
620,0.37995004653930664,3.2901767838211993,11.01493966757532,3.004074454793269,5.292893087016712,-4.577637264446886,-31.471256193072342,-4.720688428960852,-0.22190468879621644
621,0.380450040102005,3.2901767838211993,11.01493966757532,2.861023290279304,5.292893087016712,-4.291534935418956,-31.471256193072342,-4.434586099932921,-0.2224078831810038
622,0.38095003366470337,3.2901767838211993,11.157990832089284,2.861023290279304,5.292893087016712,-4.291534935418956,-31.328205028558376,-4.291534935418956,-0.22291107756579115
623,0.3814500570297241,3.2901767838211993,11.157990832089284,2.861023290279304,5.292893087016712,-4.291534935418956,-30.899051535016483,-4.14848377090499,-0.22341430194368722
624,0.3819500505924225,3.1471256193072343,11.157990832089284,2.861023290279304,5.292893087016712,-4.434586099932921,-30.32684687696062,-3.8623814418770603,-0.22391749632847457
625,0.38245004415512085,3.1471256193072343,11.157990832089284,2.861023290279304,5.292893087016712,-4.720688428960852,-30.04074454793269,-3.719330277363095,-0.22442069071326193
626,0.3829500377178192,3.1471256193072343,11.157990832089284,2.861023290279304,5.292893087016712,-4.863739593474817,-30.183795712446656,-3.719330277363095,-0.22492388509804928
627,0.3834500312805176,3.1471256193072343,11.157990832089284,2.861023290279304,5.292893087016712,-5.435944251530677,-29.46853988987683,-4.005432606391025,-0.2254270794828366
628,0.38395005464553833,3.1471256193072343,11.157990832089284,2.861023290279304,5.292893087016712,-5.865097745072573,-28.467181738279073,-4.14848377090499,-0.22593030386073268
629,0.3844500482082367,3.1471256193072343,11.01493966757532,2.861023290279304,5.292893087016712,-6.294251238614469,-28.038028244737177,-4.434586099932921,-0.22643349824552003
630,0.38495004177093506,3.1471256193072343,11.01493966757532,2.861023290279304,5.292893087016712,-6.437302403128434,-28.467181738279073,-4.434586099932921,-0.22693669263030739
631,0.3854500353336334,3.2901767838211993,11.01493966757532,2.861023290279304,5.292893087016712,-6.5803535676423985,-29.1824375608489,-4.434586099932921,-0.22743988701509474
632,0.3859500586986542,3.1471256193072343,11.01493966757532,2.861023290279304,5.292893087016712,-6.723404732156364,-29.46853988987683,-4.434586099932921,-0.2279431113929908
633,0.38645005226135254,3.1471256193072343,11.157990832089284,2.861023290279304,5.292893087016712,-7.009507061184294,-29.611591054390793,-4.577637264446886,-0.22844797245928802
634,0.3869500458240509,3.1471256193072343,11.157990832089284,2.861023290279304,5.292893087016712,-7.009507061184294,-29.75464221890476,-4.577637264446886,-0.22895949876174262
635,0.38745003938674927,3.2901767838211993,11.157990832089284,3.004074454793269,5.292893087016712,-6.866455896670329,-29.75464221890476,-4.434586099932921,-0.2294710250641972
636,0.38795003294944763,3.2901767838211993,11.01493966757532,3.004074454793269,5.292893087016712,-6.866455896670329,-29.75464221890476,-4.434586099932921,-0.22998255136665177
637,0.3884500563144684,3.2901767838211993,11.157990832089284,3.004074454793269,5.292893087016712,-6.5803535676423985,-30.04074454793269,-4.291534935418956,-0.23049410815884244
638,0.38895004987716675,3.2901767838211993,11.01493966757532,2.861023290279304,5.292893087016712,-6.437302403128434,-30.32684687696062,-4.291534935418956,-0.23100563446129704
639,0.3894500434398651,3.2901767838211993,11.01493966757532,3.004074454793269,5.435944251530677,-6.151200074100503,-30.32684687696062,-4.291534935418956,-0.23151716076375162
640,0.3899500370025635,3.2901767838211993,11.01493966757532,2.861023290279304,5.292893087016712,-6.151200074100503,-30.32684687696062,-4.291534935418956,-0.2320286870662062
641,0.39045003056526184,3.2901767838211993,11.01493966757532,3.004074454793269,5.292893087016712,-6.008148909586538,-30.32684687696062,-4.434586099932921,-0.2325402133686608
642,0.3909500539302826,3.4332279483351646,11.01493966757532,3.004074454793269,5.292893087016712,-6.008148909586538,-30.32684687696062,-4.434586099932921,-0.23305177016085146
643,0.39145004749298096,3.2901767838211993,11.01493966757532,3.004074454793269,5.292893087016712,-5.865097745072573,-30.32684687696062,-4.434586099932921,-0.23356329646330604
644,0.3919500410556793,3.4332279483351646,11.01493966757532,3.004074454793269,5.292893087016712,-5.865097745072573,-30.32684687696062,-4.434586099932921,-0.23407482276576064
645,0.3924500346183777,3.4332279483351646,11.01493966757532,3.004074454793269,5.292893087016712,-5.865097745072573,-30.04074454793269,-4.434586099932921,-0.2345863490682152
646,0.39295005798339844,3.2901767838211993,11.01493966757532,3.004074454793269,5.435944251530677,-5.722046580558608,-29.75464221890476,-4.291534935418956,-0.23509790586040588
647,0.3934500515460968,3.2901767838211993,11.157990832089284,3.004074454793269,5.292893087016712,-5.435944251530677,-29.75464221890476,-4.291534935418956,-0.23560943216286045
648,0.39395004510879517,3.2901767838211993,11.01493966757532,3.004074454793269,5.292893087016712,-5.292893087016712,-29.611591054390793,-4.14848377090499,-0.23612095846531506
649,0.39445003867149353,3.1471256193072343,11.157990832089284,3.004074454793269,5.292893087016712,-5.006790757988782,-29.75464221890476,-4.14848377090499,-0.23663248476776963
650,0.3949500322341919,3.1471256193072343,11.01493966757532,3.004074454793269,5.292893087016712,-4.863739593474817,-29.897693383418726,-4.14848377090499,-0.2371440110702242
651,0.39545005559921265,3.1471256193072343,11.157990832089284,3.004074454793269,5.292893087016712,-4.863739593474817,-29.897693383418726,-4.14848377090499,-0.2376555678624149
652,0.395950049161911,3.1471256193072343,11.157990832089284,2.861023290279304,5.292893087016712,-5.006790757988782,-29.611591054390793,-4.291534935418956,-0.23816709416486948
653,0.3964500427246094,3.1471256193072343,11.157990832089284,3.004074454793269,5.292893087016712,-5.1498419225027465,-29.46853988987683,-4.434586099932921,-0.2386835700460206
654,0.39695003628730774,3.1471256193072343,11.157990832089284,3.004074454793269,5.292893087016712,-5.1498419225027465,-29.46853988987683,-4.577637264446886,-0.23920004592717173
655,0.3974500298500061,3.1471256193072343,11.157990832089284,3.004074454793269,5.292893087016712,-5.1498419225027465,-29.611591054390793,-4.720688428960852,-0.23971652180832284
656,0.39795005321502686,3.1471256193072343,11.157990832089284,2.861023290279304,5.292893087016712,-5.292893087016712,-29.897693383418726,-4.720688428960852,-0.24023302847423172
657,0.3984500467777252,3.1471256193072343,11.01493966757532,3.004074454793269,5.292893087016712,-5.435944251530677,-30.32684687696062,-4.577637264446886,-0.24074950435538284
658,0.3989500403404236,3.1471256193072343,11.157990832089284,3.004074454793269,5.292893087016712,-5.435944251530677,-30.469898041474586,-4.577637264446886,-0.24126598023653398
659,0.39945003390312195,3.1471256193072343,11.157990832089284,3.004074454793269,5.292893087016712,-5.292893087016712,-30.756000370502516,-4.434586099932921,-0.2417824561176851
660,0.3999500572681427,3.2901767838211993,11.01493966757532,3.004074454793269,5.292893087016712,-5.006790757988782,-31.042102699530446,-4.434586099932921,-0.24229896278359397
661,0.40045005083084106,3.1471256193072343,11.01493966757532,3.004074454793269,5.292893087016712,-5.006790757988782,-31.328205028558376,-4.291534935418956,-0.24281543866474511
662,0.40095004439353943,3.2901767838211993,11.157990832089284,3.004074454793269,5.292893087016712,-5.006790757988782,-31.471256193072342,-4.291534935418956,-0.24333191454589623
663,0.4014500379562378,3.2901767838211993,11.157990832089284,3.004074454793269,5.292893087016712,-5.1498419225027465,-31.614307357586306,-4.291534935418956,-0.24384839042704734
664,0.40195003151893616,3.2901767838211993,11.01493966757532,3.004074454793269,5.292893087016712,-5.292893087016712,-31.90040968661424,-4.291534935418956,-0.24436486630819845
665,0.4024500548839569,3.2901767838211993,11.01493966757532,3.004074454793269,5.292893087016712,-5.292893087016712,-31.90040968661424,-4.291534935418956,-0.24488137297410736
666,0.4029500484466553,3.2901767838211993,11.01493966757532,3.004074454793269,5.292893087016712,-5.292893087016712,-31.757358522100272,-4.14848377090499,-0.24539784885525848
667,0.40345004200935364,3.2901767838211993,11.01493966757532,3.004074454793269,5.292893087016712,-5.435944251530677,-31.471256193072342,-4.291534935418956,-0.2459143247364096
668,0.403950035572052,3.2901767838211993,11.01493966757532,3.004074454793269,5.292893087016712,-5.435944251530677,-31.185153864044413,-4.14848377090499,-0.24643080061756073
669,0.40445005893707275,3.2901767838211993,11.01493966757532,3.004074454793269,5.292893087016712,-5.292893087016712,-31.042102699530446,-4.14848377090499,-0.2469473072834696
670,0.4049500524997711,3.2901767838211993,11.01493966757532,3.004074454793269,5.292893087016712,-5.435944251530677,-30.756000370502516,-4.005432606391025,-0.24746378316462073
671,0.4054500460624695,3.2901767838211993,11.01493966757532,3.004074454793269,5.292893087016712,-5.578995416044642,-30.32684687696062,-4.005432606391025,-0.24798025904577184
672,0.40595003962516785,3.2901767838211993,11.01493966757532,3.1471256193072343,5.292893087016712,-5.865097745072573,-30.04074454793269,-4.14848377090499,-0.24849673492692298
673,0.4064500331878662,3.2901767838211993,11.01493966757532,3.004074454793269,5.292893087016712,-5.865097745072573,-29.611591054390793,-4.14848377090499,-0.2490132108080741
674,0.40695005655288696,3.4332279483351646,11.01493966757532,3.004074454793269,5.292893087016712,-5.722046580558608,-29.46853988987683,-4.291534935418956,-0.24954898510916565
675,0.4074500501155853,3.2901767838211993,11.01493966757532,3.004074454793269,5.292893087016712,-5.578995416044642,-29.325488725362863,-4.434586099932921,-0.2500847274771125
676,0.4079500436782837,3.2901767838211993,11.01493966757532,3.004074454793269,5.292893087016712,-5.578995416044642,-29.325488725362863,-4.291534935418956,-0.2506204698450594
677,0.40845003724098206,3.2901767838211993,11.01493966757532,3.004074454793269,5.292893087016712,-5.435944251530677,-29.611591054390793,-4.291534935418956,-0.2511562122130063
678,0.4089500308036804,3.2901767838211993,11.01493966757532,3.004074454793269,5.292893087016712,-5.435944251530677,-30.183795712446656,-4.14848377090499,-0.2516919545809532
679,0.40945005416870117,3.2901767838211993,11.01493966757532,3.004074454793269,5.292893087016712,-5.435944251530677,-30.32684687696062,-4.14848377090499,-0.2522277288820448
680,0.40995004773139954,3.1471256193072343,11.01493966757532,3.004074454793269,5.292893087016712,-5.292893087016712,-30.32684687696062,-4.005432606391025,-0.2527634712499917
